coef,rank
0.366,2397
-0.0843,6491
0.23,1141
0.193,2545
-0.178,6606
-0.0257,5577
0.154,613
-0.0118,5152
0.027,4232
-0.212,9432
0.0626,3064
0.0381,3238
0.0553,3154
0.0253,4544
-0.14,7106
-0.48,9071
-0.00235,5389
-0.0461,8105
-0.175,9760
-0.00631,5269
0.127,2542
0.34,1593
-0.0476,6467
0.117,1900
0.713,235
0.0488,4002
-0.0964,8584
0.127,3364
0.196,1649
-0.0018,5193
-0.0326,6100
1.05,55
0.335,351
-0.107,6523
0.167,687
0.0246,3808
-0.0961,8425
0.0721,3602
-0.0987,7768
-0.112,7928
-0.0491,6962
-0.0182,6606
0.0886,3153
-0.0167,5878
-0.0323,5760
0.0335,4088
-0.0439,7586
0.0149,4033
-0.0733,6473
-0.00319,5105
0.000868,4767
-0.0333,5665
0.486,20
-0.0426,7342
0.0663,3511
0.135,2296
-0.382,8983
-0.127,7863
-0.0883,9221
-0.094,8763
-0.152,8229
-0.133,8541
0.19,252
0.0593,1981
-0.124,9406
-0.00716,5499
0.0118,4761
0.156,753
-0.0717,7132
-0.138,5449
-0.00781,5513
-0.231,10340
0.219,747
-0.119,7850
-0.13,7939
-0.135,9196
0.0369,3706
0.0423,3401
0.137,816
0.0975,2221
0.198,3207
0.125,2555
0.137,496
0.0181,4204
-0.231,10182
-0.15,7955
-0.126,9089
-0.424,10118
0.0546,2285
-0.00673,5584
0.0037,5032
-0.121,8175
0.104,3108
0.136,2439
0.219,1053
-0.0414,6884
-0.0358,5420
-0.111,9340
-0.108,8630
-0.0447,6377
-0.0712,8169
0.0759,2635
0.0636,2831
-0.156,8176
-0.202,8325
0.262,967
0.436,328
-0.179,9155
-0.24,9808
0.0268,4280
0.722,232
-0.106,7294
0.105,1060
-0.0306,6889
-0.0242,5892
-0.147,9350
0.113,1152
-0.011,5034
0.184,1140
0.15,314
-0.0348,7041
0.109,1050
-0.106,6713
-0.292,8828
-0.0469,7230
0.38,666
-0.0737,6193
0.0103,4571
-0.0206,5510
-0.142,8830
-0.0288,6335
0.0996,2382
-0.0477,6067
0.0973,2096
1.64,814
-0.0848,6272
0.065,2632
-0.0419,6643
0.689,142
0.178,194
0.115,2577
0.2,1071
-0.149,9037
-0.127,9415
0.0574,3657
0.0968,2942
0.0135,4440
-0.272,9768
-0.0292,5940
-0.121,9579
-0.0889,4849
-0.0282,6041
-0.215,8236
0.0686,3053
0.0186,4325
-0.167,9656
0.451,293
-0.0156,5563
0.0187,4458
-0.0716,7032
0.307,459
-0.00952,5667
-0.259,10218
0.0532,3840
0.0594,2849
-0.096,9125
0.241,552
0.0572,2908
0.00761,4654
-0.0406,5302
0.243,176
0.0654,2569
0.0178,3923
-0.0956,8212
0.0807,1887
0.0884,2692
-0.176,7534
0.0599,1810
-0.0658,7706
-0.106,7609
-0.17,10108
0.0367,3555
-0.0778,8885
-0.0319,7931
-0.025,6136
0.11,1373
0.423,46
0.0019,5115
0.0938,3627
-0.0858,8453
-0.181,9601
-0.0509,8545
0.112,1674
0.0343,4148
0.0352,4272
-0.0303,6460
0.205,728
0.348,731
0.0503,2614
0.139,2214
0.0378,3752
-0.243,9129
-0.0258,6281
-0.0532,6317
0.039,4095
0.253,1029
0.117,1780
0.208,1124
0.0775,2183
0.0548,2809
-0.109,9134
-0.00805,5313
-0.0806,6862
-0.12,7998
-0.11,10136
0.0384,3421
-0.178,9633
0.251,483
0.206,2011
-0.446,6720
0.0634,3414
-0.00744,5503
0.0322,3312
-0.0326,5884
0.577,346
-0.0783,6884
-0.0729,7636
-0.0789,8612
0.0369,3223
0.0721,3384
0.115,1932
-0.112,7064
0.411,332
-0.0081,5595
-0.246,10026
0.0609,3449
-0.0598,5282
0.0387,3926
0.0167,4527
0.267,2078
0.092,3628
0.166,590
-0.115,9000
0.0115,4598
0.0947,1993
-0.0542,6331
-0.0779,7013
0.139,1128
0.0321,4215
-0.0349,6556
-0.12,10111
0.118,2958
0.211,1992
-0.414,10294
0.156,2996
0.177,782
-0.0817,8060
-0.0414,6562
0.144,1563
-0.0426,6400
-0.0439,5997
0.0582,2623
0.215,739
-0.0745,6380
0.0996,2024
-0.352,10433
0.407,1236
-0.129,8047
-0.128,10388
-0.164,9280
0.0251,4109
0.0708,3275
0.176,872
-0.139,9099
-0.0424,6033
-0.039,6448
-0.027,5840
0.0744,3531
-0.104,8490
-0.0189,5608
0.195,1446
0.0763,3210
0.14,2267
0.222,914
0.0322,4061
0.091,1307
0.126,1929
-0.0232,5528
0.0956,2813
-0.0648,6195
-0.142,7467
0.0273,3801
0.0994,1744
0.247,1797
-0.034,6482
0.0194,4774
-0.0265,5635
-0.0981,8166
0.019,4237
-0.2,9647
-0.128,8622
0.0184,4666
0.157,2926
-0.176,10361
0.0333,4535
-0.131,9426
-0.0453,5345
-0.184,8691
-0.00846,5396
0.0589,2218
0.109,1648
0.00813,4890
-0.198,8240
-0.00267,5010
-0.148,8778
-0.39,10151
0.0298,4473
-0.206,8546
0.295,151
-0.0236,5510
-0.285,8945
0.0102,4643
-0.0917,8387
-0.0647,7762
-0.0911,7534
0.141,341
1.07,157
-0.0795,8813
0.00971,4658
0.239,1145
0.117,2334
-0.00701,5094
-0.235,4494
0.0193,4341
-0.09,8915
0.0296,4049
0.0302,3773
0.0554,3142
0.0238,4452
0.00374,4886
-0.244,4781
0.343,622
0.0749,1357
-0.0577,8199
0.578,36
-0.127,9815
0.011,4620
-1.06,9405
-0.346,8161
-1.13,9991
-0.279,5523
-0.297,6313
0.13,2243
-0.186,8471
-0.135,8953
-0.0872,6997
-0.0261,6742
0.0108,4227
0.669,1452
-0.257,9255
-0.336,10184
0.03,4246
0.0749,2896
0.0138,4334
-0.347,9334
-0.0636,6463
-0.0966,8406
-0.132,9112
-0.111,7534
-0.0739,8289
-0.22,9943
-0.175,8735
-0.143,8613
0.435,405
0.107,2453
0.145,879
0.086,3205
-0.0543,8343
0.0683,3288
0.378,1832
0.198,484
-0.158,9688
-0.0572,6842
-0.00606,5285
-0.329,9951
-0.0433,6429
0.11,2070
0.281,73
-0.127,8683
-0.13,7453
0.0319,4050
-0.223,8744
-0.0858,7264
0.0642,2959
-0.0684,6118
0.0994,2060
0.385,238
0.147,1539
-0.222,10180
0.0327,3913
-0.192,9974
0.0887,3210
-0.012,5215
0.19,3094
0.0153,3367
0.113,1407
0.19,1633
0.0866,3416
0.229,1063
-0.0347,6067
-0.12,9475
0.0691,1123
0.0377,782
0.0711,2963
0.209,1933
0.0105,4663
0.0227,4457
0.0704,2007
-0.15,8934
-0.022,5556
0.176,1462
0.092,3176
0.231,1277
0.0699,2279
-0.286,10351
0.297,703
-0.0385,6104
0.104,2305
0.0544,2736
0.196,369
0.153,2030
0.0893,2462
-0.14,8299
-0.00665,5503
-0.165,8575
0.0628,2885
0.0751,1517
-0.414,8412
0.488,167
-0.267,9855
0.00268,4764
0.0218,4139
-0.0152,5438
0.363,281
0.172,2886
0.0628,3619
0.00955,4804
-0.021,6024
0.00611,4810
0.213,1839
0.0546,3766
-0.0899,7178
-0.0458,6542
-0.00866,5400
-0.163,10426
-0.297,10244
-0.179,9384
0.0561,3749
0.0129,5038
-0.178,10142
0.0978,2877
0.00778,4629
0.523,174
0.00363,4983
-0.139,8749
0.0236,4381
0.0702,2850
-0.0583,6463
-0.0254,5813
0.169,448
-0.0361,6010
-0.171,9429
0.0226,4574
0.0411,3821
-0.118,6951
-0.26,10324
0.089,2498
0.18,278
-0.0893,6526
0.0561,3225
-0.234,9733
-0.0469,6192
0.0524,3704
0.00212,5151
-0.0581,7867
0.11,1481
0.0919,1764
-0.172,9739
-0.0327,6023
0.0563,718
-0.0468,6662
-0.0641,7590
-0.0711,6185
-0.0785,5976
-0.00492,5330
0.114,1999
0.117,1669
-0.0278,5771
-0.0193,5726
0.565,82
-0.0531,7189
-0.154,10390
-0.00228,5221
0.0553,4006
-0.00191,5128
-0.0397,5474
0.059,3945
-0.195,8727
0.0226,4027
-0.182,6824
-0.15,7588
-0.0132,5309
-0.427,9806
0.0362,3140
-0.0512,7619
-0.127,9369
0.0436,3508
-0.0542,5928
0.029,4490
0.0486,2864
-0.1,8151
-0.57,10404
0.0698,3552
-0.222,9346
-0.305,8809
-0.0399,7224
0.0204,4340
-0.0389,6360
0.037,3758
0.072,3001
-0.284,10153
-0.0133,5879
0.037,2983
-0.508,8091
-0.212,4293
-0.409,8734
-0.257,10208
-0.0813,6793
-0.124,9214
0.116,2399
-0.352,10283
-0.0645,6923
0.072,2926
0.272,621
-0.0352,6111
-0.266,10410
-0.137,5975
0.192,2772
0.0587,2763
-0.233,9580
0.0469,3484
-0.133,8383
0.145,1844
-0.111,8337
0.217,772
0.226,739
-0.06,6921
0.11,1602
0.38,150
-0.206,9931
-0.0595,7517
-0.203,10173
-0.128,9133
0.125,1576
0.155,1848
0.149,634
-0.0896,8489
0.00272,5005
0.052,3582
0.0708,2797
0.0674,3095
0.12,2335
0.126,1685
0.101,1076
-0.485,10280
0.122,1583
0.0746,3596
0.733,189
0.0275,3967
0.0574,3168
-0.243,9332
0.0631,2674
0.0153,4511
-0.0654,6368
-0.0913,8733
0.0882,2142
-0.309,10423
0.0215,4447
-0.269,9678
-0.106,6692
0.0349,3018
-0.159,9286
0.114,2561
0.0787,3047
-0.051,6742
0.0911,2021
0.0416,3940
0.175,468
0.128,2417
-0.12,7248
-0.0146,5545
-0.0274,5684
0.127,1393
-0.0536,7607
-0.0747,6752
-0.107,9375
-0.0472,5814
0.469,261
0.096,2028
0.212,327
-0.0184,5604
-0.123,9039
0.132,2277
0.408,184
0.0145,4508
0.0195,4053
0.0836,1560
0.00711,4842
0.235,433
0.107,2084
-0.0139,5726
-0.11,7687
-0.0692,8023
-0.6,9395
-0.313,8529
-0.0814,8135
0.0735,1783
-0.00125,5014
-0.18,10222
0.12,2538
0.0899,2788
0.0731,2220
-0.022,6768
0.0645,2480
-0.0793,7049
0.0833,3290
-0.0561,6284
0.0323,4184
-0.0172,5218
-0.703,9308
0.0721,2872
-0.18,8251
0.0108,4619
0.0191,4384
-0.174,9120
1.44,1008
0.0139,4755
-0.472,10143
-0.193,8564
0.203,59
0.228,1395
0.829,1046
-0.568,8674
0.0114,5009
0.159,2472
-0.0833,7945
-0.0831,6976
0.033,4469
-0.0343,7448
-0.0255,5622
0.103,3197
-0.358,8568
0.151,587
-0.152,9366
0.057,2608
-0.275,9914
-0.161,9731
0.293,1457
-0.0164,5830
0.0928,2331
-0.142,9369
0.21,1266
-0.239,8900
0.576,16
0.175,1641
0.0858,1780
0.0726,2873
-0.0697,6572
-0.0103,5712
0.0452,4243
-0.163,7915
-0.044,6901
-0.0432,6040
0.185,1592
0.38,1914
-0.119,8578
-0.133,7975
0.135,1360
0.253,156
0.0273,4422
0.26,1400
0.0688,3204
0.235,1715
-0.192,8576
-0.074,7296
0.084,2634
-0.226,7372
-0.135,8340
-0.043,6351
-0.094,8186
-0.197,9848
-0.126,9629
0.172,1391
0.114,3543
1.2,531
0.125,958
0.0283,3855
-0.0642,7980
-0.11,7400
-0.141,10240
0.18,2241
0.216,458
-0.0304,6302
0.0519,4139
-0.239,9746
0.189,1130
0.08,3136
-0.26,10200
0.0219,4249
-0.273,8484
0.421,380
-0.372,8652
0.221,1827
0.0388,3060
0.1,2543
0.0438,3966
-0.28,10454
0.237,474
-0.287,8897
0.144,1645
-0.00321,5189
-0.174,9449
-0.0548,7174
-0.171,7326
0.273,2580
-0.117,9574
-0.0201,6377
0.153,955
0.0108,4902
-0.165,8790
-0.0109,5253
0.176,437
0.00105,5187
-0.205,9545
0.264,1837
0.221,431
0.0533,2940
0.109,1654
0.0996,1793
0.0921,2529
-0.00343,5229
0.0269,3524
0.244,411
-0.142,7846
-0.137,10002
0.0269,4057
-0.116,7999
-0.0863,7704
-0.237,8966
0.137,1624
-0.24,9955
-0.212,9689
-0.209,8297
-0.0444,6041
0.0438,4092
0.201,87
-0.357,10054
-0.217,7658
-0.11,7738
-0.162,7888
0.126,2251
-0.0486,6862
-0.0755,7384
-0.00947,5046
0.0452,3187
-0.21,8059
0.283,948
0.0306,4264
0.105,1124
-0.0214,5689
0.229,983
-0.104,7615
-0.239,9559
0.0577,2879
0.0792,2820
-0.0198,7566
-0.0255,9559
0.0498,347
0.0122,2745
0.0166,2020
1.31,1080
0.216,1415
-0.00124,4047
-0.0306,6212
-0.231,10081
-0.295,9133
0.0417,4382
-0.02,5309
0.0315,3782
0.389,375
0.102,2269
0.075,3710
-0.0262,7020
0.131,1618
0.142,1376
-0.0708,5357
-0.59,9971
0.078,3721
0.26,2429
0.144,1881
0.115,2375
-0.498,9654
-0.176,8672
0.287,699
0.012,4503
0.0294,4190
0.033,3912
0.238,2040
-0.253,10177
0.325,26
-0.0171,5934
0.0618,4092
0.107,2558
-0.13,8777
0.0682,3753
0.0346,4250
-0.00188,5242
0.032,2853
-0.121,8215
-0.0835,7673
0.063,3393
-0.189,8406
-0.252,9952
-0.00913,5371
0.109,2743
0.169,1225
0.141,1975
0.0628,2630
-0.155,10010
0.16,1382
-0.0385,6233
-0.105,9207
0.126,2878
0.0721,3971
-0.0565,7021
0.106,1923
0.0595,4055
0.029,3810
0.127,2542
0.142,2710
0.0824,2284
-0.136,9054
0.0584,3872
0.0193,4398
-0.18,9314
-0.0617,7356
0.128,1196
0.131,1191
0.0585,2784
0.191,740
0.0995,2620
-0.00215,4990
-0.0419,7334
0.144,540
0.143,3013
-0.179,8257
0.0654,2988
-0.13,8318
0.166,1549
-0.0778,8474
-0.105,8870
-0.0746,5448
0.00969,4497
0.145,1156
0.0661,4033
0.0635,3066
0.543,1229
0.0548,2417
-0.0108,5587
0.193,241
-0.288,5981
0.173,3220
0.368,1311
0.336,1457
-0.023,6023
0.192,2590
0.168,998
-0.0332,6256
0.0364,4047
-0.126,9065
0.239,603
0.12,2179
0.0701,3084
-0.0329,6064
-0.0194,5835
-0.101,8374
-0.0793,6697
-0.0144,5690
-0.226,9526
-0.118,7532
-0.0512,6387
0.0569,3655
0.424,2545
-0.736,7999
-0.0693,6716
-0.0583,5724
-0.179,8616
-0.0707,6407
-0.00946,5222
-0.0914,8101
-0.0112,5271
0.25,68
0.0546,3349
0.00954,4577
0.0477,3656
0.0911,3003
0.128,2159
0.109,1021
0.135,2021
0.0784,1721
0.0234,4500
0.199,1360
-0.234,8625
0.00333,5040
-0.0238,6520
0.253,436
-0.0617,5423
0.182,920
0.0909,2469
0.0595,3995
-0.0216,6214
-0.281,10110
0.0998,3123
-0.0135,5487
0.0538,3468
0.00691,4832
0.00262,5131
0.0682,2527
0.412,2263
0.0152,4142
-0.138,7785
0.00878,4847
0.0239,4451
0.141,2341
0.0579,4044
0.155,2262
-0.112,8357
0.168,2478
-0.127,9913
-0.0523,6300
-0.352,6408
-0.196,7214
0.161,3386
-0.0342,6160
0.056,3438
-0.0618,6911
-0.0825,6062
-0.121,6479
-0.534,9923
-0.0293,6856
0.0499,3292
0.0813,3572
-0.081,7378
-0.0699,6041
0.137,1124
0.21,120
-0.0447,7323
0.00447,4823
-0.123,8553
-0.0496,7412
0.123,746
0.0645,2441
-0.026,5893
-0.0349,5979
-0.148,9798
-0.0638,5943
0.105,3317
0.0154,4484
0.133,1569
0.0979,2234
-0.151,8380
0.192,1025
-0.196,9048
-0.07,6817
0.0304,3956
-0.891,8943
0.13,2865
0.443,1081
0.126,2919
0.0846,3053
-0.0802,7536
-0.18,8382
-0.295,10283
0.173,807
-0.313,10367
-0.0396,6420
-0.068,10065
-0.0173,5343
-0.446,7722
-0.0894,6049
0.00969,4617
-0.0666,8011
-0.027,6062
-0.0277,5505
0.424,14
-0.38,9746
-0.0113,5574
-0.063,6849
-0.0641,8100
0.472,77
-0.104,7173
-0.259,8362
-0.271,9632
-0.049,5872
-0.00416,5105
0.124,2209
-0.115,8868
-0.232,9596
0.289,1461
-0.0775,7826
-0.05,6892
-0.292,9686
-0.0665,7016
0.000614,4954
-0.201,7968
0.04,3419
-0.0925,8387
0.246,1090
-0.0909,7418
0.0508,4035
-0.128,7285
0.409,55
0.164,747
-0.00166,5064
0.125,2233
0.0147,4524
0.458,1545
-0.0299,6869
-0.0113,5553
0.108,3348
-0.29,10010
-0.157,7907
0.412,92
-0.218,9801
0.0699,3459
0.0222,4408
-0.106,7775
-0.0923,9256
0.0089,4640
-0.0707,8113
0.108,1706
-0.0765,7969
0.0121,4522
-0.101,7487
-0.0236,5796
-0.115,9440
-0.248,10402
0.0429,3347
0.275,1217
0.0935,2128
-0.189,8043
-0.14,8830
0.0615,2417
-0.0617,5631
-0.0507,6358
0.00354,4934
0.247,2058
0.0343,3993
-0.102,8426
0.272,1244
-0.114,8556
-0.379,7492
0.147,1394
-0.0943,8123
-0.292,10427
0.00206,5171
0.112,2323
-0.18,4646
0.0532,3068
-0.133,8756
0.0771,2298
-0.0853,6134
0.228,2184
0.0258,4168
-0.0975,8230
0.137,544
0.137,1481
0.0626,3608
-0.038,5934
-0.0962,7497
-0.117,9063
0.0875,2406
-0.0836,8251
0.19,635
-0.0325,5852
-0.0734,6530
-0.0281,6577
0.0175,4281
-0.169,9110
0.0537,3255
-0.205,7878
0.281,730
0.218,917
-0.151,8791
-0.0828,7324
-0.108,7344
0.0074,4749
-0.0199,5253
0.16,548
-0.134,9728
0.000731,4713
-0.0491,6862
-0.077,7843
-0.13,7779
-0.0365,6292
-0.0123,5892
0.0503,3911
-0.205,9699
-0.195,9290
-0.0353,4675
0.0102,4487
-0.0455,7511
-0.0212,5980
0.0617,3593
-0.136,9906
-0.158,7298
-0.0377,7413
-0.0398,6005
-0.223,8658
0.265,2468
0.0274,4189
-0.381,10167
0.234,479
0.122,937
-0.0229,5857
0.0457,3168
-0.141,7208
-0.0264,5576
0.0991,1536
0.00028,5138
-0.097,7327
-0.0217,5352
-0.125,8110
-0.162,9504
0.109,972
0.174,1080
0.0346,4200
0.0335,4315
0.198,612
0.0268,4481
-0.0176,5366
-0.00795,5056
-0.0738,7844
-0.205,9346
0.0384,3143
-0.19,9251
0.0612,2075
-0.00937,5188
0.00985,4422
-0.108,9022
-0.217,7524
0.0631,3466
0.000764,5127
-0.0645,7152
0.137,1674
0.0852,2755
-0.135,7513
-0.0596,6000
0.103,1264
-0.068,8012
-0.0928,6918
-0.273,9468
-0.121,7882
0.0261,4229
0.0344,4105
0.00633,4703
0.36,2667
-0.0802,7326
0.12,3248
0.0285,4145
0.132,1630
-0.163,6906
-0.0111,5783
0.294,1045
0.108,3223
-0.0551,6688
-0.0569,7653
0.157,1231
0.194,689
0.0553,2915
-0.115,8140
0.0208,4439
0.0755,1998
0.0402,3260
-0.12,9751
-0.388,9577
-0.169,8985
0.00686,5064
-0.0228,5697
0.0221,4507
-0.145,3642
-0.0195,5103
-0.215,9140
0.0849,3428
-0.193,10066
0.238,1115
-0.0412,6715
0.0657,2970
-0.0253,5626
0.0947,2711
-0.245,9260
-0.109,9773
-0.166,9837
-0.0861,7546
0.0538,4029
0.0238,4417
0.0319,4148
0.0235,3764
0.0562,3499
0.0531,3338
-0.0439,6478
0.0111,4591
-0.0485,7778
-0.134,9660
0.0543,3285
-0.00868,5215
-0.0884,5652
-0.189,7513
-0.0494,6519
-0.093,8178
-0.0142,5096
-0.0756,8391
-0.0177,5226
0.0275,4404
0.295,477
-0.12,8839
0.15,1621
-0.873,10332
0.0711,2983
0.406,678
-0.101,8941
-0.0427,6800
0.0102,4818
-0.184,8200
-0.0155,5879
0.224,1112
0.0294,3122
-0.128,9206
0.0265,4149
0.109,2069
0.0551,3153
0.0738,3613
-0.0311,5995
-0.123,6777
-0.147,8338
0.188,1591
0.257,1540
-0.129,5175
-0.0309,6034
0.0512,4058
0.0549,3630
0.00123,4951
-0.153,8558
-0.211,7528
0.0226,4078
-0.147,9096
0.172,1237
-0.0215,5285
0.00742,4743
0.0977,2432
-0.124,9860
0.0202,4441
-0.0351,5378
-0.0479,6392
-0.54,10190
0.111,1603
0.0162,3857
-0.115,7368
0.213,610
0.0288,4314
0.0709,2537
-0.261,10463
-0.0477,7122
0.207,1212
-0.0996,9123
-0.187,10296
-0.0885,8887
-0.0193,6242
-0.0892,8315
-0.0816,7543
0.151,2472
0.264,1107
0.0579,2432
0.012,4757
0.11,2229
0.208,788
-0.216,9351
-0.09,6420
0.0752,3273
0.00288,4881
-0.0408,6915
-0.0254,5607
0.0697,2655
0.378,1110
0.0866,1518
-0.043,7059
0.211,207
0.452,252
0.00483,5243
0.318,1293
-0.088,7981
0.0362,2845
0.0606,2356
-0.0566,6845
-0.206,10005
-0.00316,5096
0.184,2248
0.0495,3653
-0.00304,5816
-0.0602,6419
-0.09,7786
0.0121,4702
0.00746,4747
0.22,775
-0.0461,7465
0.029,4002
0.376,93
-0.0908,7777
-0.132,7917
0.0221,4214
0.0439,3273
-0.117,7646
-0.161,9498
-0.133,8553
0.0623,3705
0.229,529
0.203,746
0.142,2130
0.0665,3072
0.00747,4570
1.74,758
-0.026,5570
0.16,1013
-0.104,8892
0.0375,3826
0.233,1084
-0.0179,5820
-0.174,9786
-0.0739,7778
0.121,3478
-0.122,4081
0.659,1395
-0.186,8881
-0.2,8259
0.243,2160
0.204,1110
-0.026,5609
0.0673,3530
-0.0941,7885
-0.0192,6101
-0.255,9794
0.13,2337
0.243,680
-0.0492,6092
0.0489,3210
0.126,715
-0.187,9331
0.0761,3005
-0.00632,5078
0.0112,4461
-0.0924,6850
-0.0429,7046
-0.259,9030
0.0316,3984
-0.205,9430
-0.11,8373
-0.00125,5381
-0.0158,5994
0.104,2120
0.0531,3135
0.0676,3950
-0.472,9012
0.0448,3025
0.0792,1084
-0.0511,6198
0.0274,4177
0.969,712
0.491,1630
-0.117,9353
0.447,13
-0.0227,5599
0.0536,2916
0.0263,4268
0.0919,2577
0.0992,2126
-0.0676,8576
-0.00758,5725
0.0845,2268
-0.12,9450
-0.0452,6774
0.00814,4430
-0.0381,6495
0.216,1855
-0.124,9670
-0.151,7421
-0.147,9018
-0.0309,6732
-0.129,9108
-0.182,8840
0.486,296
0.14,740
-0.0186,5266
-0.054,8090
-0.0809,7881
-0.00134,5781
-0.0852,5967
-0.0423,9931
0.11,2544
0.362,105
-0.281,8104
0.985,3
0.208,1195
-0.105,7443
0.621,381
0.0544,3695
0.268,2334
-0.0603,6574
-0.0357,6352
-0.15,7732
0.897,104
0.121,2059
-0.223,9262
0.155,1560
0.0817,2178
-0.112,8146
0.417,1631
-0.297,7632
-0.158,7902
-0.0739,7585
-0.0439,6319
-0.0504,7310
-0.156,9568
0.00936,4879
0.381,624
-0.163,8544
0.00322,4659
-0.0115,5228
-0.0388,6383
-0.298,9857
0.354,201
-0.0256,5584
-0.0155,5921
-0.0693,8933
0.0602,3018
-0.206,9978
0.0606,2857
-0.371,9949
0.338,242
-0.0861,7864
-0.0136,5545
-0.1,7773
0.271,1552
-0.115,6293
-0.0884,8613
-0.000345,5026
-0.0757,7687
0.0601,3831
-0.0358,6224
0.32,788
0.0643,2720
0.143,1239
0.118,1810
0.0753,2931
0.488,800
-0.117,8399
0.0224,4163
0.0351,3915
0.0129,4661
0.022,4323
0.062,3267
0.198,1947
0.0304,4215
0.0602,1660
-0.241,9328
0.0857,3336
0.0477,3736
-0.132,7194
0.0635,2865
0.0477,3459
-0.124,8605
-0.139,8013
0.283,1406
-0.00756,4934
0.0867,736
0.0768,1131
0.174,619
0.0954,2045
0.0853,3905
0.0616,2489
0.133,761
-0.0373,6011
-0.0582,6692
0.0955,3122
0.113,2951
-0.00497,5040
0.0781,2907
-0.00495,5266
-0.0735,7552
0.000625,4917
-0.188,8806
0.0644,3179
-0.147,9348
-0.0526,7605
-0.165,8484
0.101,2935
0.208,1288
-0.0273,5955
0.00599,4644
0.123,679
0.21,2026
0.768,285
-0.00898,4907
0.203,1367
0.0608,3789
0.0716,2659
0.0252,4081
-0.0584,7178
0.00222,5006
-0.232,10280
0.027,4262
-0.0962,7424
-0.0158,4977
-0.274,9870
-0.244,8405
-0.0787,6941
-0.0243,6397
-0.158,8315
-0.0994,7477
0.0121,4450
0.0641,3996
0.295,764
-0.133,10100
-0.0178,5454
0.0348,3728
-0.464,6840
0.0737,4285
-0.207,8837
0.0407,3502
0.0535,3133
-0.0302,5336
-0.0415,5667
-0.0647,7769
-0.00325,5080
-0.0278,5570
-0.00303,5172
0.068,2013
0.0357,4118
0.0299,4224
0.0776,2665
-0.00789,5199
-0.128,9514
0.0906,2341
-0.0133,5452
-0.0879,6995
-0.321,9575
-0.156,9356
-0.0407,6169
0.131,2177
0.318,97
-0.202,8885
0.139,1928
0.062,1741
0.0244,3583
-0.124,5977
-0.303,5620
-0.0159,4714
0.118,2757
-0.000911,5137
0.0897,1713
-0.168,9344
0.129,2183
0.124,1791
-0.184,10005
0.101,1405
0.259,1179
-0.0791,7260
-0.041,6097
-0.0938,8323
0.0502,3730
0.00809,4832
0.0574,3163
0.0473,3289
-0.104,7669
-0.189,9611
-0.216,9430
-0.161,9717
0.123,692
0.127,1964
0.177,1517
-0.14,7227
0.365,1925
-0.129,8727
0.0985,2055
-0.186,7906
0.0952,3474
0.129,1552
0.0749,3017
0.0751,2107
-0.0508,7455
0.104,827
0.223,1536
0.0273,4119
-0.0669,6514
0.19,611
0.0481,3356
-0.0113,5300
-0.148,8914
0.0294,3572
0.00144,4897
-0.0958,9368
0.04,3822
0.125,2520
0.387,797
0.107,2247
0.188,1708
-0.143,9975
-0.0498,6190
0.0906,2236
0.0109,4876
0.0172,4813
-0.147,8493
0.141,938
0.00274,5140
-0.0626,7165
-0.0736,7253
0.467,213
0.0511,2853
0.0187,4182
0.0342,4285
0.27,2090
-0.0706,7451
-0.146,9042
0.0433,3349
0.0255,4141
-0.262,10459
-0.0573,6412
0.0128,4621
0.343,55
0.206,552
0.0882,3176
-0.115,7616
0.0173,4551
-0.00472,4928
-0.0663,5674
0.0476,3056
0.0133,4709
0.00134,4862
-0.053,6599
0.00309,4803
0.211,1747
-0.0764,8881
0.0351,3580
0.258,1618
-0.0552,7550
0.022,4550
0.0719,3584
0.111,2124
0.00124,5149
0.0624,1999
0.0554,3470
0.277,70
-0.153,9275
-0.00631,5279
0.0488,3190
-0.0467,5972
0.0563,3330
-0.0725,7393
-0.464,9893
-0.067,6175
0.0988,1745
0.375,73
-0.213,9834
-0.112,8311
0.0602,3800
-0.0282,5579
0.131,894
-0.302,9244
0.198,374
0.0325,4148
-0.232,9718
0.17,583
-0.0767,7729
0.138,639
-0.155,7300
0.34,824
0.192,1927
0.0951,2497
0.219,463
-0.0772,8383
-0.144,7832
0.0252,4403
0.163,1744
0.0422,3852
-0.174,9841
-0.328,9341
0.225,1776
0.195,1546
-0.167,4561
0.209,1105
0.31,584
-0.205,9688
-0.303,10397
0.0791,2066
-0.0783,8259
-0.214,8711
-0.0542,6542
-0.078,7177
0.114,800
0.0206,4051
-0.0172,5981
0.313,1138
-0.0705,6691
-0.227,9099
-0.0507,6962
0.0523,1653
-0.094,8583
0.032,4141
-0.273,8991
0.206,1954
-0.111,6922
0.0322,3957
-0.0665,8248
0.0348,3921
0.258,622
0.00952,4664
0.197,520
-0.109,9283
-0.359,9711
1.36,1124
-0.0757,6706
0.127,1874
-0.0878,7562
0.0963,2997
0.186,1150
0.121,2374
-0.111,7951
-0.0326,6652
-0.0199,5947
0.039,3927
-0.0755,7103
0.3,266
0.0682,3632
-0.0283,6094
0.131,2011
-0.247,9706
-0.0534,5988
-0.0187,5153
-0.0878,8008
0.268,775
0.0577,3736
0.352,289
0.00542,4941
-0.175,10054
0.205,907
-0.662,7902
0.188,1146
-0.277,6639
0.0645,2063
-0.0726,8354
1.24,1183
-0.338,5428
0.289,767
-0.245,9263
0.233,2144
-0.0328,6389
-0.0136,5626
0.193,1839
0.267,1900
-0.164,8432
-0.00915,5602
0.112,1616
0.084,3247
-0.0806,7422
0.293,973
-0.0561,4472
-0.0482,7461
0.149,1430
-0.101,7867
-0.0263,5571
0.0079,4690
0.0167,4460
0.00855,4651
0.00692,4843
0.379,270
-0.113,8394
0.0441,4269
-0.286,9802
0.0957,2831
0.202,313
0.123,1393
0.161,1881
0.16,1054
-0.109,8137
0.00398,4943
-0.0419,7948
-0.0749,6415
0.091,2433
0.0273,3744
-0.129,8364
0.00259,4972
-0.0979,8764
-0.217,7586
0.0945,3503
0.0927,3600
0.181,1606
0.147,1950
0.0406,3976
0.126,2230
0.236,1845
-0.154,8165
-0.109,7782
0.0722,2735
-0.0506,5961
0.0788,3237
-0.0588,5673
-0.0661,6858
-0.0692,6473
-0.105,9126
-0.166,9493
-0.0352,7394
0.119,1819
-0.171,9035
-0.0417,6154
-0.0712,7441
0.065,2930
0.0659,2615
0.0304,4199
-0.226,7194
-0.0607,8174
0.21,726
-0.0149,5697
-0.00375,5219
0.431,817
0.177,910
-0.23,8404
-0.00518,5349
-0.149,8018
0.166,1066
-0.105,8844
0.142,486
0.263,278
0.00699,4769
0.0861,2512
-0.176,8777
0.078,2456
-0.0278,5915
0.0017,4799
-0.081,9130
0.141,919
0.423,78
-0.109,7856
-0.0193,6277
0.0341,3927
-0.0961,8604
0.0456,3623
0.205,894
-0.0426,6368
-0.162,7906
0.0062,4751
-0.212,9894
0.05,2701
0.137,2004
2.06,31
0.583,71
-0.0239,5691
-0.0024,4918
-0.0263,5969
0.0062,4879
0.181,2367
0.0611,1924
0.326,141
-0.129,8589
-0.0644,7470
-0.685,9129
0.0525,3544
0.126,2044
-0.422,9290
-0.0129,5641
-0.0279,5674
0.132,1557
-0.0885,7870
0.000804,4981
0.0703,3611
-0.046,7893
0.15,643
0.0889,3171
0.147,2326
-0.108,8209
-0.234,10441
-0.0715,8631
-0.0693,8972
0.00573,4632
-0.0524,6250
0.0784,2229
0.033,4241
-0.0536,7568
-0.159,9662
0.00843,4900
0.22,1257
0.102,3156
0.0867,1916
0.226,386
-0.188,9381
-0.56,9787
-0.0654,8149
-0.329,9310
-0.109,8455
-0.119,10229
0.772,103
-0.0519,5829
-0.0863,8267
-0.107,9020
-0.0847,7350
-0.132,9925
-0.085,7519
0.0899,3492
-0.215,8802
0.128,2966
0.0179,4656
-0.02,5892
0.162,395
-0.0122,5707
-0.0765,6669
0.134,2243
0.0796,3109
0.0258,4238
-0.099,8027
-0.0764,7162
0.217,493
-0.397,9992
-0.106,6793
0.025,3942
-0.151,9766
-0.281,9755
0.00194,5055
-0.157,7656
-0.101,5574
0.00977,4646
-0.126,7767
0.241,380
-0.127,9184
-0.217,9865
0.187,2491
-0.0608,6677
-0.0933,7189
0.121,1382
0.0928,2963
0.112,2567
-0.13,9192
0.0204,4273
-0.074,6488
0.00443,4829
0.00574,4871
-0.433,10013
0.215,1431
0.0225,3821
-0.231,10347
-0.128,9098
0.17,503
0.00515,4859
-0.0119,5473
-0.0193,5444
0.227,121
-0.0421,6412
0.0326,4187
-0.0877,6196
-0.149,9609
-0.0537,6345
-0.135,8292
-0.0418,6161
0.0967,2325
0.031,3991
0.19,2364
-0.0905,9164
-0.0809,8335
-0.00518,5388
0.0178,4411
-0.112,9221
-0.26,10056
0.0339,4239
-0.0567,6272
0.223,247
-0.137,8213
-0.291,9337
-0.0281,5699
0.0751,3340
-0.0147,6671
-0.206,9705
-0.153,9195
-0.226,9449
-0.17,7994
0.0326,4149
0.34,229
0.0183,4382
-0.26,9834
0.0521,3027
-0.00728,5277
-0.00313,5012
-0.0472,7155
0.545,25
-0.0752,8135
-0.134,6799
-0.356,10260
-0.127,8481
0.0231,4111
0.303,1010
0.138,956
-0.166,9030
-0.00615,5363
-0.0542,6379
0.171,212
0.126,1981
-0.0882,8221
0.287,804
-0.232,8083
-0.522,10433
-0.0371,5861
0.114,2266
-0.159,8105
-0.0982,4825
-0.275,9745
0.0801,3296
-0.145,9289
0.193,1141
-0.0391,6784
0.122,1016
0.116,3003
0.0513,2375
0.0418,2222
-0.209,9097
0.189,1796
0.00771,4538
-0.203,7300
0.0573,2350
0.0172,4106
-0.0325,5624
0.0694,3487
0.0666,3621
-0.131,7659
-0.108,7836
-0.0574,7213
0.119,1457
0.0823,2371
0.129,2513
-0.112,7845
0.0714,3081
-0.145,10087
-0.0657,7082
-0.352,9619
-0.348,10136
-0.0976,7350
0.12,664
-0.0868,8388
-0.00567,5340
0.05,3978
-0.187,8030
-0.26,9724
0.0415,3211
0.0208,3736
0.384,550
-0.181,7696
0.323,1428
-0.397,10091
-0.0401,5589
-0.0152,5317
0.064,3325
-0.118,8561
0.491,643
0.119,2390
-0.0192,5834
0.216,1325
-0.129,7449
0.104,1717
0.247,1780
-0.572,10360
0.00108,5029
-0.138,9000
0.0748,3420
-0.0665,6695
-0.298,10202
0.0607,3683
-0.0785,7680
-0.14,8532
-0.0841,7771
-0.206,9292
-0.432,8632
-0.0873,6418
-0.246,10279
-0.0658,6576
0.0732,2951
-0.0764,7290
-0.0156,5495
-0.000318,5154
-0.0988,8123
0.0173,4497
0.205,820
0.164,3251
-0.103,8132
0.211,1295
-0.0393,6349
0.102,821
-0.0363,6043
0.206,1452
0.0175,4300
-0.145,7901
-0.0544,8158
-0.0796,9036
0.221,1587
0.0203,4343
-0.0349,5991
-0.115,8307
0.289,675
0.118,1586
-0.0156,5445
-0.095,6225
0.186,1218
0.254,1904
0.15,1843
0.00261,4948
0.157,2092
-0.0568,6795
-0.0669,7127
-0.49,9894
-0.0981,8903
0.119,1009
0.145,1535
0.053,2783
-0.0503,6285
-0.157,8541
0.038,4175
0.0722,2258
-0.0977,7929
0.0435,3432
-0.324,10085
-0.0734,7512
0.146,748
-0.24,10427
-0.183,7089
-0.395,10165
-0.2,8592
-0.00116,5094
0.00807,4846
-0.0706,8717
-0.117,8052
-0.414,10170
-0.216,6715
-0.362,7469
0.0213,4258
0.0532,2712
-0.0466,6403
-0.114,8729
0.0412,3818
-0.166,7894
0.0659,2683
-0.000102,5117
0.182,971
-0.0348,6007
0.236,348
0.299,1108
-0.0727,8198
0.0821,2747
0.0127,4666
0.368,59
-0.0884,7750
-0.226,9693
0.0493,3131
-0.168,9967
0.0252,4514
0.0687,3119
-0.0683,6328
0.309,255
-0.0547,8013
-0.0546,5452
-0.00977,5691
0.134,1812
-0.139,8230
0.268,1804
-0.0145,5500
0.0302,3604
0.166,2290
0.699,236
0.363,623
-0.196,7706
0.136,2379
0.244,1413
0.0925,3313
-0.223,9694
0.0303,4216
-0.0418,6604
-0.176,10226
-0.0757,6671
0.101,1234
0.209,1422
0.0373,4142
0.619,682
-0.0732,7373
0.657,1548
-0.118,7883
0.0569,3509
0.0184,4230
-0.0917,7959
-0.171,10235
0.155,1985
0.147,1225
-0.217,7680
0.0332,3237
-0.0684,7249
-0.00166,5355
0.128,1788
-0.11,7919
2.61e-05,4766
-0.0327,5933
-0.00203,5104
-0.345,9916
-0.241,9745
-0.103,7553
-0.152,8505
0.0163,4316
-0.0423,6380
-0.113,10000
-0.369,9865
0.737,791
-0.298,9147
-0.144,9199
0.278,576
-0.0267,5997
-0.104,7259
0.00788,4729
0.437,504
-0.161,9586
-0.134,9086
-0.0947,8658
-0.0973,7445
-0.0464,6580
-0.0743,6088
0.156,2766
-0.147,9224
-0.0121,5683
0.00922,4810
-0.000472,5224
0.0153,4658
-0.383,8727
0.122,754
-0.0297,6817
-0.068,6531
0.316,807
0.263,2469
-0.101,8280
0.159,1052
-0.167,10251
0.0402,4009
-0.193,8534
-0.0568,7438
-0.013,5796
0.0408,2840
0.0989,1817
-0.109,8147
0.0577,3158
0.00824,4877
-0.106,8327
0.00744,4945
0.0595,3396
-0.0716,6597
-0.107,8062
-0.158,7803
0.0285,4372
-0.0732,7121
-0.212,10096
-0.284,10268
0.0993,3131
0.514,1801
0.236,881
-0.0452,6689
0.23,961
-0.102,6681
-0.0679,9170
0.0971,1934
0.0362,3992
-0.0234,6287
0.146,696
0.0701,3984
-0.107,8114
-0.0194,5551
0.172,1505
-0.0906,7597
-0.0804,7347
0.0293,4482
-0.139,8467
0.0172,4401
-0.0894,6889
-0.00435,4933
-0.104,7747
0.0396,3853
0.0927,3625
-0.116,7218
0.0491,4117
-0.0335,5668
-0.0861,7920
0.0911,2841
-0.1,8387
0.12,2428
0.0143,4324
-0.217,10394
-0.039,7223
-0.163,8228
-0.0754,6006
-0.042,7383
-0.127,8299
-0.00613,5256
-0.123,8287
0.125,2338
0.0313,4068
-0.346,9206
-0.134,7145
0.0808,2339
0.036,3699
-0.0477,7035
0.0103,4568
0.082,1710
-0.00528,5522
-0.0447,5918
-0.0808,7938
0.0386,3772
-0.132,8666
0.086,2542
-0.0299,6205
-0.0872,6526
0.0662,3049
-0.0855,5923
-0.0592,5879
0.134,509
-0.336,10451
-0.144,8515
0.127,1482
0.00969,4633
-0.061,7032
-0.155,9504
-0.159,9150
-0.0561,6608
-0.527,10404
-0.0144,5580
-0.0138,5486
0.064,2818
0.122,2900
-0.00938,5489
0.111,1070
0.0465,3616
-0.108,8381
0.163,1608
0.176,2205
0.104,2505
0.239,1548
0.0437,3321
-0.0184,6010
0.0613,3903
-0.232,9800
-0.171,8761
-0.105,8472
0.0143,4416
-0.0146,5318
-0.0134,5487
0.0535,3300
-0.466,10408
0.0361,3957
-0.0372,6292
0.0396,2986
-0.0686,8098
0.0422,4136
-0.0619,6047
0.122,2521
-0.109,7046
0.142,820
-0.268,9908
0.0971,2321
0.0508,3189
0.721,59
-0.0118,5969
0.125,1266
-0.0711,5526
0.463,968
-0.071,6430
0.0214,4437
0.0162,3880
-0.0549,7645
0.726,344
0.198,2619
0.0904,2957
0.0109,4792
0.118,1915
-0.273,9753
-0.53,7591
-0.86,9459
-0.344,5415
0.189,2609
0.103,1671
-0.105,7500
0.172,1308
0.93,1564
0.343,552
-0.062,7553
0.0541,1719
0.2,1141
-0.2,9258
0.151,1085
0.126,3230
0.036,4026
-0.186,10156
0.0622,3839
0.0831,2753
-0.0467,5422
0.0138,4656
0.0311,3874
0.154,658
0.0465,3846
-0.0805,6345
0.157,2353
0.0444,2826
0.000675,4795
0.0423,3191
-0.00636,4978
-0.205,9289
-0.141,9148
-0.0158,5861
-0.184,8998
-0.107,8489
0.0208,4208
0.0178,4618
-0.2,7174
0.0204,4601
0.056,1403
-0.0613,7267
0.0388,4177
0.334,189
-0.166,7732
0.108,1387
-0.003,5111
-0.195,8756
-0.11,7065
-0.103,8120
-0.234,8322
-0.154,8058
0.19,329
0.262,552
0.165,2360
-0.133,9370
0.0733,3953
0.0468,3270
-0.00623,5380
0.167,1302
-0.105,8014
0.029,4160
-0.139,8403
-0.114,7942
-0.0866,6751
0.132,1895
-0.0134,5408
0.232,1278
-0.155,7205
-0.057,6416
0.164,692
0.138,1475
-0.0943,7917
-0.00981,5178
0.156,2196
0.0639,2108
-0.00798,4841
-0.118,7601
-0.232,7237
-0.273,8478
-0.207,8263
-0.0685,7231
0.0305,3967
0.049,3677
0.351,1126
-0.0885,5816
-0.0187,5674
0.168,2536
-0.339,9881
-0.0645,6775
0.0931,3113
-0.58,10349
0.0254,4042
-0.0153,5638
-0.226,10365
-0.281,10155
-0.0502,6509
-0.17,9262
-0.188,10007
-0.31,10168
0.0882,1248
-0.0273,5287
0.405,264
-0.142,7327
-0.192,8826
0.101,1165
-0.0148,5632
-0.333,10019
-0.032,5702
-0.212,7954
-0.256,9636
0.0428,3544
-0.011,5699
0.199,1233
0.011,4728
0.457,477
-0.226,9576
0.0257,3478
-0.000245,5139
0.0976,3033
-0.0396,6073
-0.0996,8358
-0.0533,6233
0.0904,2442
-0.0378,6578
0.0736,2617
0.576,1036
0.584,481
-0.173,8990
-0.0925,8072
-0.00736,5363
-0.14,9218
-0.198,9752
0.0171,4477
0.246,1104
0.104,1516
-0.155,9958
-0.0494,6086
0.189,610
-0.127,8834
0.132,2525
0.144,159
0.024,4404
0.176,2312
0.105,3203
0.0604,4204
-0.14,6470
-0.15,9538
-0.0693,7315
0.00564,4813
-0.0141,5562
-0.113,7854
-0.0295,5729
-0.0754,8228
-0.0976,9023
0.0661,3008
0.157,2076
-0.0204,5272
-0.244,10103
0.0598,1680
0.111,1816
-0.0144,5424
0.0792,2420
-0.0511,6913
0.0892,2985
0.0572,4017
-0.0524,7746
0.103,2097
0.139,1708
-0.0487,6397
-0.0336,5484
-0.0123,5804
0.0189,4339
-0.0327,6122
-0.0883,6862
-0.303,9725
-0.12,6299
-0.0265,6120
0.0487,3550
-0.0731,8026
0.00225,4967
0.0796,2865
0.0303,4303
0.0373,3302
-0.073,8438
0.129,1447
0.0171,4587
0.202,2706
0.0607,3460
0.0593,3112
0.0427,3748
-0.043,6359
-0.289,9749
-0.00726,5037
0.593,1144
0.0102,4874
-0.117,8628
0.0868,2695
0.167,1200
0.242,2240
-0.236,9802
0.132,1271
0.0576,2233
-0.0662,7293
-0.0499,6628
0.154,2214
-0.0937,5927
-0.0154,5416
-0.0788,7315
-0.234,7735
-0.312,8235
-0.0128,5313
-0.0234,5754
-0.258,10082
0.0941,2573
-0.132,8560
0.145,1633
0.0879,2695
0.107,3017
0.137,1313
-0.0788,8109
0.0246,4340
0.0626,2826
-0.0334,5541
-0.282,8978
-0.0296,6190
0.076,874
-0.275,7993
-0.078,7160
-0.00652,5387
-0.0366,6879
0.000648,5100
-0.0195,5784
0.0968,2159
-0.0145,5401
0.53,337
0.0456,1626
-0.0422,7492
0.204,391
-0.0952,7061
-0.226,8917
-0.128,8341
0.477,92
-0.0682,8563
-0.135,9223
-0.0165,5497
-0.268,9730
0.00771,4847
0.1,1737
0.0763,1482
-0.0831,8770
-0.154,8637
-0.153,9025
-0.157,7219
0.258,1391
0.00722,4899
-0.00877,5683
-0.244,8813
-0.0839,7318
-0.0858,6150
-0.026,6398
-0.00482,5687
-0.247,10394
0.474,231
-0.00694,4930
-0.0149,5509
0.179,495
0.00494,5077
-0.12,8984
0.016,4450
0.209,2411
-0.243,8130
-0.0903,6910
0.178,547
0.00818,4870
0.0128,4503
-0.248,8970
-0.126,8338
-0.11,7010
-0.063,7987
0.00124,4999
0.0443,3964
-0.135,8774
-0.434,10424
-0.0713,7795
-0.187,4895
-0.107,8138
0.039,4292
-0.00537,5466
0.637,281
-0.072,6514
0.00615,4608
-0.0457,6312
-0.197,5132
0.122,3201
-0.117,6799
0.112,3316
-0.0651,8153
0.133,506
-0.463,7505
0.298,2866
-0.293,5881
-0.0774,6858
-0.103,6199
-0.218,7953
-0.0795,6102
0.892,60
0.123,1614
-0.116,8744
-0.471,6648
-0.347,5794
0.232,2328
0.132,705
0.0503,3335
-0.132,5496
-0.335,9103
-0.524,10195
-0.407,10226
0.225,776
-0.26,5037
-0.0862,5952
-0.0408,7534
-0.0437,5957
-0.0405,6451
-0.118,7665
1.25,775
0.153,1737
0.0517,4206
-0.0166,5367
-0.276,10282
0.633,1575
0.269,2020
-0.222,9866
0.891,415
0.172,2039
-0.0239,5832
-0.479,9943
0.164,1943
0.145,2515
-0.239,5568
0.119,1177
0.0147,4305
-0.0103,5270
-0.076,8317
0.159,2074
0.609,30
-0.117,9239
-0.0154,5856
-0.0465,6004
0.0742,3580
-0.158,8736
-0.039,6268
0.11,2044
0.255,1579
0.146,1323
0.077,2203
-0.0217,6579
0.577,16
0.125,1435
-0.119,8556
-0.0991,8716
0.0465,2647
-0.126,9220
0.42,2549
-0.303,6382
0.8,430
-0.213,6822
-0.179,6540
-0.0589,6969
0.199,1189
0.385,870
-0.0306,6096
0.138,1307
0.0532,2316
0.214,775
0.0178,4525
-0.0503,7355
-0.16,8346
0.0725,2396
0.00507,5064
0.602,997
-0.0806,7868
0.0517,3431
-0.000342,4862
-0.0862,8662
0.0941,815
-0.152,9469
-0.297,10315
0.193,298
-0.0452,6527
-0.0662,7355
0.00946,4656
0.076,1558
-0.109,7352
0.201,624
-0.0812,7090
-0.0603,8638
0.0875,2364
-0.111,7446
0.168,542
-0.304,9420
-0.155,8619
-0.051,7732
-0.00808,6110
0.129,2086
0.427,234
0.0079,4647
0.0281,3986
-0.107,7470
-0.107,8397
-0.0292,5732
-0.572,10400
-0.347,10032
0.112,1872
-0.0868,7980
-0.214,9262
-0.0438,6554
0.0387,4248
0.255,864
-0.355,9995
-0.0298,7074
0.0665,2507
-0.0136,5548
-0.349,10447
0.0917,2851
-0.0244,5749
-0.0725,7281
-0.00953,5381
0.0158,4372
-0.0774,7153
-0.0615,6665
-0.00447,5442
0.0229,4556
-0.177,9689
0.206,1185
-0.145,7966
0.118,3096
-0.266,6864
0.00842,4462
0.0222,4277
0.0227,4087
-0.166,9377
-0.13,6322
0.0488,2827
0.0427,2344
0.0323,4256
0.0746,3307
0.0731,3461
0.0321,4302
-0.195,9690
-0.125,8505
0.00076,5286
-0.0027,5084
-0.0226,5748
-0.0885,5995
0.177,2988
0.137,880
0.0788,1484
0.0996,3356
0.153,2143
0.527,900
0.408,1337
0.112,2738
0.139,2582
-0.101,5538
0.187,1425
1.03,480
-0.1,7190
-0.279,9178
-0.0224,5121
-0.0447,6467
-0.0882,8804
-0.337,9933
0.297,867
-0.0159,6540
-0.0514,6262
-0.0975,9354
-0.0395,6480
-0.036,5290
-0.0371,5992
-0.108,9700
-0.0198,5815
-0.092,7231
0.282,435
0.397,228
0.0693,2813
0.0635,2955
-0.0822,8780
-0.0959,7434
0.0571,3594
0.083,3562
0.114,2100
-0.0435,7133
0.316,258
-0.0845,7792
-0.0538,7476
-0.0727,6490
-0.366,9431
0.0132,4506
0.00848,4666
-0.126,7926
-0.203,9571
-0.00509,5315
-0.149,8598
-0.0399,7227
-0.0293,6319
-0.268,8828
-0.25,9461
0.139,2498
-0.055,6292
0.0382,4077
0.0821,780
-0.0783,7400
-0.0715,7675
-0.117,8540
-0.108,7498
-0.0348,6314
0.157,615
-0.086,7230
-0.0134,5673
-0.126,8252
-0.262,9371
0.00979,4641
-0.143,9094
-0.0581,6378
-0.0961,6162
0.0806,3304
-0.00751,5135
-0.0669,7183
-0.0559,6116
-0.131,8086
-0.165,10304
-0.14,8919
-0.352,9450
0.339,690
0.194,634
0.154,1961
-0.194,9752
0.0358,4167
-0.25,10087
0.144,2204
0.0291,4353
-0.12,7889
-0.0863,6701
0.539,514
0.119,2512
-0.153,10286
-0.0169,5671
0.559,16
-0.134,7844
-0.46,6669
-0.136,10156
0.0638,2816
-0.0824,8004
0.176,2351
0.553,1691
-0.0309,5694
-0.0993,6590
-0.331,10437
-0.0182,5386
0.242,1954
-0.00664,5346
0.0477,2924
-0.0619,7656
-0.0463,6343
0.00151,5062
-0.102,8659
-0.144,9743
-0.0593,6205
0.149,1940
0.0281,3692
0.0357,4408
0.0492,3768
0.23,992
-0.297,9826
-0.507,10069
0.163,1725
-0.0562,8781
0.0479,3647
0.0876,2625
0.0356,3933
-0.0637,6562
-0.124,7552
0.00383,4871
-0.206,3366
1.7,1043
-0.6,7409
-0.267,6522
0.414,2338
-0.676,9218
-0.722,9357
0.18,1964
0.0152,4533
-0.39,10471
0.00817,4526
0.0248,3949
-0.053,6255
-0.235,9926
0.02,4554
0.0269,4374
0.043,2572
0.00664,4799
0.014,4708
-0.0713,6217
-0.131,8523
0.233,328
0.0427,4205
0.0729,2861
-0.135,9580
0.153,1094
-0.158,7790
-0.0343,7029
-0.0793,9100
0.107,1706
0.0474,2707
-0.215,9916
-0.238,8298
0.0572,2475
-0.093,7819
0.147,1688
-0.185,9743
0.11,2760
-0.178,7520
-0.0854,7689
0.101,1084
0.583,49
-0.101,7455
-0.159,9157
0.0456,3577
-0.00568,5353
-0.17,7262
0.0461,3643
-0.138,7295
-0.127,8855
0.0621,2448
0.072,1959
0.0891,3275
0.33,1440
-0.0854,6412
0.0755,3671
0.0313,3922
-0.317,10259
-0.126,8678
0.014,4761
-0.0571,6290
0.0476,3094
0.245,540
-0.0632,6336
0.209,739
0.167,1058
-0.107,7723
0.074,2848
-0.0164,5868
0.0598,3198
0.0217,4435
0.313,915
-0.206,8728
-0.0493,6348
-0.00617,5416
0.0203,4428
0.163,285
-0.0964,7312
0.301,492
-0.147,9799
0.0952,2725
-0.166,9813
-0.131,8767
-0.136,9335
0.0159,4692
0.00719,4932
0.0462,3036
-0.00842,5062
-0.00445,4962
0.286,953
-0.192,10182
0.0641,1679
-0.106,9169
-0.0307,6284
-0.148,7801
-0.325,10401
0.203,398
0.0904,1734
-0.0375,6982
-0.207,9504
-0.22,9846
-0.0949,7148
0.273,706
-0.0246,6361
-0.1,9435
-0.219,8749
-0.0367,6159
-0.041,6461
0.0602,3151
0.104,2256
-0.106,8300
0.138,1546
-0.0223,5583
-0.14,7836
-0.0129,5840
-0.0228,5747
-0.0592,6922
0.0364,4343
0.107,3181
-0.187,7096
-0.0649,7387
-0.137,9818
-0.128,7651
0.155,2816
0.0519,3948
-0.0574,5610
-0.109,8631
0.253,92
-0.0805,8032
-0.127,8028
-0.037,5956
0.195,2149
0.00143,5064
-0.0603,8306
-0.241,5169
0.0235,4364
0.0175,4406
-0.012,5427
-0.0261,6909
0.0655,2554
0.19,1364
0.103,3428
0.0549,3191
0.441,185
-0.0453,7061
-0.0406,7028
-0.0497,7559
0.304,139
-0.0435,6777
0.283,421
0.0369,3278
0.088,1293
0.047,3407
0.134,2564
-0.174,8729
-0.129,7975
-0.166,8712
-0.0642,6314
-0.0872,6731
-0.0331,6171
0.0762,3300
-0.0681,6086
0.0213,4243
-0.00908,5775
-0.0218,6586
-0.014,5875
-0.415,10391
-0.0404,6578
0.185,1012
-0.0217,6180
0.0357,3417
0.216,1181
0.0579,3083
-0.034,5825
0.0805,2374
0.0697,1965
-0.258,8380
0.129,3543
0.117,2677
0.176,1922
-0.0871,7393
-0.049,7371
0.00712,4730
0.179,1881
0.339,1250
0.00905,4831
-0.181,9962
0.206,448
0.0251,3780
0.00648,4908
0.129,2171
-0.287,9842
0.0119,4422
-0.0437,7385
0.139,2010
0.0369,3976
0.0835,3549
0.231,1774
-0.166,9467
-0.243,6173
0.103,2560
-0.00481,5036
0.616,56
0.0235,4137
-0.0704,8273
-0.194,7655
-0.15,9199
0.0132,4563
-0.0471,5405
-0.0688,7211
-0.0823,7567
-0.271,9938
-0.0497,7088
-0.0917,5362
-0.134,7937
0.0372,3703
0.0558,3454
-0.0177,6367
0.591,669
0.212,641
0.0638,3326
0.0686,2403
0.00803,4844
0.185,1199
0.234,371
0.117,774
0.36,525
-0.167,9002
0.00346,4903
-0.0149,6492
-0.112,6951
0.16,925
-0.165,9649
0.244,786
-0.166,9310
0.178,546
0.0833,1889
0.465,298
0.00565,5024
-0.0656,6979
-0.00414,5302
0.0404,3649
0.145,1822
-0.206,8588
-0.00485,5323
-0.0391,5992
-0.25,9759
0.148,843
-0.112,6279
0.163,1587
0.0924,2623
0.379,1807
-0.0588,6607
-0.0524,8899
0.134,328
0.00226,5011
-0.166,8973
0.00112,4923
-0.0523,6981
-0.162,9302
-0.0193,5754
-0.263,8489
-0.178,9255
-0.00496,5419
-0.0661,8432
-0.0826,7793
0.00931,4731
0.166,488
-0.061,5273
0.646,173
-0.0124,5848
-0.0122,5704
0.0826,3298
-0.0977,8301
-0.0473,5789
0.0359,3830
-0.0233,5488
-0.238,10072
0.113,1977
0.472,760
0.0185,4484
-0.0328,6404
0.111,1954
0.0668,1878
-0.311,10412
0.0713,2950
-0.241,9851
-0.00124,4820
-0.121,8839
-0.086,7544
0.221,562
-0.0372,6435
-0.0621,6914
-0.0723,8097
0.00742,4858
-0.0798,7410
0.241,144
-0.0347,6138
0.325,263
-0.0885,7129
0.159,451
-0.0686,9768
-0.0084,5179
0.0211,4211
0.111,2942
-0.19,8996
0.248,532
0.0315,3443
-0.0434,6128
-0.00718,5788
-0.118,9243
-0.0435,8127
0.105,2302
-0.0428,7377
-0.0283,6086
0.0728,2487
0.0179,4287
0.0612,3894
-0.185,10020
0.137,2074
-0.11,7457
0.0816,2321
-0.215,7611
0.18,843
-0.0731,6062
-0.0937,7403
0.172,1957
-0.303,10259
0.129,2177
-0.303,10257
-0.121,8452
0.0401,3430
-0.0392,6603
-0.0192,4998
-0.107,7389
-0.108,8694
-0.0672,6454
-0.0556,8326
0.0242,4366
-0.124,8718
0.0507,3936
-0.232,8130
0.0408,3478
-0.181,10399
0.232,878
-0.116,6917
0.323,281
0.0718,3673
0.273,37
-0.00847,5426
-0.0768,7758
0.12,2251
-0.256,9691
0.0348,4151
0.0381,1940
-0.0488,7576
-0.133,8783
-0.211,9462
-0.191,9639
0.335,541
-0.184,9738
-0.116,8149
0.0962,1657
-0.158,9849
-0.0365,6044
0.0427,4168
0.213,1056
0.183,1225
-0.309,9646
-0.0423,6278
-0.385,10366
0.0792,1972
-0.104,8391
-0.0552,7464
0.139,632
-0.0575,7838
-0.185,10093
-0.255,9834
0.0133,4564
0.14,1048
-0.0414,6883
0.226,160
0.173,1532
-0.103,6807
-0.01,5975
-0.0775,8349
-0.226,9131
-0.128,8601
-0.0679,8226
-0.103,7207
-0.0585,7405
-0.192,10243
-0.0715,7314
0.387,105
0.255,871
0.334,242
0.0359,3666
0.00478,5016
-0.17,9624
0.0247,4603
-0.0733,7738
0.0124,4797
-0.205,9342
-0.0681,8524
-0.0647,8747
-0.0258,5833
-0.0739,7381
-0.695,8489
-0.0162,5958
0.272,1175
0.00401,4697
0.144,2418
-0.158,8584
0.23,1568
-0.067,7520
-0.0101,6126
-0.0649,7704
0.024,4243
-0.0244,5904
0.147,1950
0.0606,3224
0.0933,2631
0.307,1702
-0.0826,6692
-0.107,7802
-0.089,8792
0.0746,3204
-0.0382,6774
0.0383,4103
-0.111,8488
-0.281,8662
-0.00875,5426
-0.178,7426
0.296,2261
-0.126,10342
-0.0805,8956
0.151,1126
-0.179,8755
-0.116,8841
-0.0721,5471
0.185,595
-0.0709,7623
-0.0871,8590
0.242,581
-0.106,8738
-0.164,6751
-0.101,9215
0.175,271
-0.105,6922
-0.174,9745
0.164,1450
0.246,1726
-0.172,9331
-0.0262,6476
0.0354,4273
-0.108,8196
-0.0445,6335
-0.455,10426
-0.0071,6066
0.0397,4187
0.17,1060
-0.112,7271
0.144,638
-0.292,10432
0.00456,5146
-0.0449,7312
-0.125,7042
-0.0153,5593
0.278,418
-0.0337,5413
-0.15,9459
-0.155,9891
0.0505,3443
-0.0289,5237
-0.174,9107
-0.076,7668
-0.0511,6540
0.0493,2852
-0.171,8676
0.102,3360
-0.399,9611
0.0183,4246
0.302,445
0.00698,4812
-0.221,9919
-0.132,8546
0.3,193
0.185,1931
0.0272,3562
0.387,62
0.0329,4264
-0.0979,8077
-0.0316,5683
-0.0996,7803
-0.0133,5833
-0.098,8544
-0.199,8995
-0.0114,5067
0.0626,3795
-0.043,5347
0.0264,4022
-0.0913,8993
-0.0623,7520
0.0461,4328
-0.0335,6068
-0.112,9343
-0.0545,7573
0.0607,3201
-0.0646,6072
0.061,3783
-0.0436,6608
0.117,1374
-0.0183,5574
-0.287,9539
-0.122,9091
0.0396,3829
0.157,2249
0.0226,4117
0.0603,2473
0.135,825
-0.342,9925
-0.124,8005
0.0654,3875
0.0741,2752
-0.184,9877
0.206,913
0.386,681
-0.216,9401
-0.0344,6147
-0.311,5994
-0.0697,7504
0.108,824
0.0788,3004
0.0608,3237
-0.0502,7475
0.0653,3786
-0.131,9902
0.00599,4841
0.194,925
-0.0259,6725
-0.0726,7203
-0.171,9345
0.0629,1117
0.0806,2269
0.37,442
-0.0788,8666
-0.1,6632
-0.0022,5314
0.0596,2571
-0.163,10094
-0.0632,6774
-0.0344,7256
0.0149,4680
0.126,731
0.00657,4542
0.0111,4482
0.109,3034
-0.265,10210
0.0646,3354
-0.476,10104
-0.29,9594
-0.0129,5224
-0.0484,6801
-0.22,8546
-0.132,7197
0.0128,4791
0.293,912
0.281,645
-0.0399,6079
-0.157,9295
-0.107,8299
-0.0746,6668
-0.0272,5845
-0.0236,5909
0.341,1773
0.133,3382
-0.431,10309
-0.309,10058
-0.176,10233
-0.0861,6915
-0.11,7510
0.00872,4809
-0.0109,5510
-0.175,8772
0.104,286
0.157,844
0.216,875
0.0886,2589
-0.0677,6655
-0.0966,6410
-0.000552,5076
0.182,992
-0.238,9327
-0.177,7725
0.00166,4907
-0.118,8561
0.0599,3281
0.0583,2801
-0.0244,5707
0.0448,3943
-0.279,5633
0.00614,4748
0.127,1803
-0.0144,5309
0.0787,2233
-0.125,8751
0.0185,4440
0.0544,3222
0.0294,3869
-0.216,9879
-0.06,6358
0.119,2576
-0.0128,5509
0.287,750
0.133,1784
-0.144,8876
0.0364,3866
0.0276,3972
-0.0583,5757
0.232,365
0.0866,1050
0.0706,2558
-0.0483,6632
-0.0721,7717
0.864,9
-0.134,9615
0.234,528
-0.0376,8254
0.178,1340
0.179,1820
-0.0648,5664
-0.0224,5617
-0.151,10057
-0.205,9886
-0.0924,9107
-0.0961,7735
-0.175,10370
0.00464,4852
0.0613,2478
-0.111,8197
-0.245,8518
-0.664,9384
1.87,777
0.0304,4418
-0.166,7417
-0.0521,7168
-0.242,10371
-0.0443,6066
-0.0302,5607
0.361,2243
-0.17,8905
-0.0504,7975
0.22,93
0.208,415
0.0358,3174
-0.0644,6164
0.0493,2979
-0.0497,7634
-0.636,10325
0.0985,2890
-0.0553,5966
0.174,3125
0.147,1288
-0.0226,5890
-0.119,8300
0.0593,3412
0.0609,3397
-0.0353,6671
-0.0308,6279
-0.0337,6112
-0.118,8202
0.0569,3078
-0.108,8845
-0.0465,3391
-0.131,8495
-0.0373,6381
-0.085,8599
0.0127,4452
-0.00741,5076
0.0905,2445
-0.00277,4902
-0.00956,5224
0.012,4642
0.0732,2611
-0.283,10076
-0.0341,6510
-0.066,7967
0.00403,4853
-0.0125,5525
0.291,1106
0.203,273
0.00947,4598
0.0969,1484
0.0518,3294
-0.131,7638
0.0892,1420
-0.00456,5432
0.385,427
0.0334,2713
0.0244,3934
-0.0517,7161
-0.263,7593
0.131,2737
-0.083,6673
-0.0915,9000
-0.16,9371
-0.106,7464
0.303,1532
0.00564,4761
-0.133,8184
0.083,2385
0.0266,4095
0.487,1212
0.248,243
-0.002,5022
0.0368,4034
-0.0653,8018
-0.084,7343
-0.129,8116
-0.0537,6246
0.185,1939
0.0114,4643
-0.123,9041
-0.0693,7784
-0.116,7871
0.0286,4184
-0.318,10047
0.0449,3503
0.0901,1996
-0.0276,6353
0.0778,2566
-0.339,10222
0.0708,3037
0.116,1286
0.0762,2393
0.0302,3851
-0.126,8261
0.255,741
-0.899,9144
-0.0311,5559
0.0782,2248
0.115,953
-0.159,9014
0.0565,3027
-0.0798,5437
0.104,822
-0.118,9803
-0.0702,8555
-0.0676,7219
-0.0438,6215
-0.0676,5805
0.834,49
-0.0897,9023
-0.112,7118
0.131,3641
-0.324,10389
-0.128,6958
-0.137,8812
-0.187,9095
-0.158,10263
0.00608,4844
0.214,2000
0.068,2055
0.078,3171
0.0389,3516
0.0376,3763
-0.118,6794
0.0738,3666
-0.112,6026
-0.0221,5901
-0.023,5799
-0.031,6003
0.0459,4025
-0.185,8835
0.00852,4633
-0.128,9365
-0.011,5654
-0.231,9595
0.0228,4246
0.283,472
-0.111,7358
0.23,371
0.436,155
0.182,231
-0.0261,5617
-0.0312,5953
-0.0329,5447
-0.167,7623
0.185,808
-0.282,10375
-0.122,9109
0.366,202
0.0301,4083
-0.0727,6913
0.183,369
0.039,3373
-0.282,10160
-0.0288,5952
-0.114,8004
0.147,2277
0.0206,4402
0.0222,3758
-0.116,8585
-0.164,10358
0.283,2027
-0.181,7266
-0.0169,5785
0.184,854
0.00379,4226
0.0755,3385
-0.0323,5951
-0.171,9985
0.315,2584
0.144,1090
0.0336,3701
0.304,414
-0.268,9823
0.106,2840
0.255,1499
-0.0379,6860
-0.0335,6601
-0.244,10390
-0.114,6227
-0.0349,5950
0.102,3594
-0.109,8558
-0.0102,5347
0.264,572
0.079,2653
-0.0536,6943
-0.17,8825
-0.0875,8449
0.202,580
-0.0643,6037
0.103,2810
-0.13,7266
1.04,294
-0.00272,5019
0.301,120
0.0444,3282
0.224,1091
0.361,1811
0.0433,3689
-0.00924,5394
0.0433,3663
-0.0406,5895
-0.155,9853
0.0686,3197
0.0716,2489
0.0713,3761
0.09,2036
0.0298,4132
-0.119,8110
0.159,1281
-0.0716,7067
-0.0493,7928
0.00801,4499
-0.0018,5261
0.0724,2869
-0.35,8733
0.0611,3319
0.0685,2503
0.0135,4381
0.17,1156
0.254,3052
-0.501,9897
-0.0985,6870
-0.0597,7439
-0.245,9488
0.418,655
0.159,807
0.296,476
0.252,1305
0.101,1680
0.0388,3787
0.128,2323
-0.0158,5599
-0.158,9261
0.124,2424
-0.176,8294
-0.121,9692
0.273,525
-0.0573,6697
-0.0294,5861
0.128,2563
-0.102,8224
0.137,752
-0.177,9203
-0.04,5450
0.0798,1480
-0.057,5888
-0.139,9385
-0.0242,7323
0.0683,2313
0.241,2487
-0.109,6371
0.0328,3846
-0.0669,7538
0.00493,4729
-0.0703,6573
0.0326,4163
-0.211,8164
-0.257,9034
-0.0273,6186
0.0549,3866
-0.0325,5723
-0.19,9070
-0.134,8532
-0.0567,5761
-0.121,9234
0.14,1665
-0.08,6870
0.00373,5018
-0.26,9678
0.0613,3770
-0.0621,7265
0.0458,3443
-0.147,9096
-0.133,9408
-0.0573,7562
0.0172,4731
-0.0264,5584
0.118,1567
0.153,926
-0.128,9467
0.147,980
0.125,2700
0.00764,4603
-0.000597,5202
0.0746,3207
-0.00109,5227
-0.0941,5924
-0.101,8277
-0.0919,8276
0.235,612
0.247,910
0.0216,4516
-0.112,8802
-0.00974,5896
0.0584,3124
-0.0442,6253
-0.127,9705
-0.11,8605
-0.143,8211
0.0335,4348
0.056,3052
-0.161,9832
-0.156,8855
-0.185,9693
-0.0943,7165
-0.228,9066
-0.156,10178
0.0162,4665
-0.283,9644
0.177,223
0.471,508
0.0773,2042
0.235,996
0.12,1608
-0.126,9167
0.157,1743
-0.156,7699
0.158,3076
0.108,2497
-0.102,7155
-0.171,8215
-0.0564,7608
0.125,3116
-0.132,7514
0.0386,2570
0.123,1216
0.111,969
-0.00637,5300
-0.012,5750
-0.0783,6988
0.0263,4075
-0.106,9033
-0.119,7994
-0.0263,5623
-0.169,7927
-0.306,10156
-0.165,10206
-0.146,9918
-0.25,9838
-0.257,9553
1.18,14
-0.0642,6650
-0.0601,7523
-0.324,9405
0.136,3212
0.413,1752
0.197,3109
0.00706,4766
-0.0542,6379
0.000931,5140
-0.179,8354
-0.22,8164
0.0119,4590
0.101,1565
0.0277,4256
0.047,4078
0.0326,4025
0.0696,3177
0.235,504
0.0619,2886
-0.0529,7839
0.108,2816
-0.0466,6457
-0.199,8857
-0.147,7252
0.0227,4192
-0.0391,7279
0.222,90
-0.0139,5308
0.00325,4864
-0.0838,5169
-0.0065,5133
0.00176,4976
-0.107,6595
0.0325,4145
0.0834,3678
-0.0246,6113
0.00154,5105
0.077,2838
-0.122,9566
-0.134,8189
-0.0637,7111
-0.14,8110
0.0574,1843
-0.0169,6045
0.0825,3167
0.121,2090
0.0423,3631
0.12,2818
-0.0114,5834
0.0212,4362
-0.0556,7641
0.0022,5026
-0.165,8713
0.191,1634
0.153,562
-0.0229,6471
-0.0927,7855
0.144,2601
0.113,3435
0.158,2511
-0.0323,7093
0.0811,1913
-0.0653,7393
-0.188,9273
0.0451,3629
-0.152,8523
-0.0778,8029
-0.0345,6172
0.0734,2914
0.209,632
-0.0379,6428
0.0641,3235
-0.0079,5450
-0.0857,8924
-0.15,8038
-0.0588,5810
0.0443,3883
0.216,866
0.0235,4254
-0.0635,9259
0.14,1729
-0.0574,6571
0.0573,3353
0.0513,3766
-0.0181,6313
0.0105,4688
0.131,1202
0.138,2354
-0.0553,7772
0.0953,2632
0.123,1089
0.194,534
0.00762,4979
-0.143,9863
0.169,1358
0.254,2778
0.0801,1787
0.00987,4541
0.0569,3465
-0.184,9016
0.681,299
-0.287,6761
-0.0883,7595
-0.112,9297
0.105,2281
0.0678,2989
0.0698,3992
0.156,3297
-0.0107,5072
-0.0299,6704
0.0635,3298
0.0962,2582
0.0677,3827
-0.0422,6703
0.0173,4638
-0.0653,5920
-0.0666,7025
-0.0402,5348
-0.128,6770
0.493,311
0.0736,2581
-0.139,8432
-0.028,6069
-2.54e-05,5015
-0.125,9166
0.272,232
0.0254,3109
-0.178,10123
-0.116,7777
-0.00797,5176
-0.0863,7609
0.357,1082
-0.0342,6543
-0.181,9164
-0.022,5973
-0.0052,5154
-0.157,8017
-0.0501,6549
-0.191,9793
-0.191,8300
0.57,214
0.139,1706
0.00522,4983
-0.152,8746
-0.0216,5760
-0.00919,5367
-0.0609,7343
0.24,842
0.511,253
0.978,41
0.0348,3741
0.0621,3573
-0.166,8038
0.00302,4965
-0.0409,5463
0.011,4576
0.0562,2938
0.0714,3319
-0.143,9137
0.157,1398
-0.289,7253
-0.075,8027
-0.0534,6823
-0.156,9117
-0.235,9247
0.0833,1569
0.00263,4999
-0.124,9286
-0.176,9260
0.0581,3463
-0.0157,5695
0.125,870
-0.039,6249
-0.0921,7325
-0.124,8828
-0.00505,5349
0.0947,3035
-0.142,8079
-0.156,8922
0.18,2125
-0.124,9992
-0.0606,7585
0.0401,3655
-0.0243,5377
0.0967,2848
-0.0681,6067
-0.0162,5442
-0.0164,5603
-0.054,7536
-0.0749,6868
-0.0393,5842
-0.0804,6974
-0.101,9359
-0.000606,5212
0.0276,4374
-0.041,6012
0.14,1294
0.201,722
0.0294,3727
-0.106,8913
0.15,1684
0.204,2097
-0.14,7385
0.0764,3530
0.0347,3478
0.138,289
0.608,16
0.0707,2559
0.628,328
-0.148,8419
-0.168,9639
-0.0589,8624
0.0222,4340
0.00957,4859
0.063,1291
-0.203,9730
0.108,1803
0.0681,3471
-0.0146,5599
-0.145,8112
0.0107,4746
-0.501,10451
-0.033,6335
-0.0196,5842
-0.102,7912
-0.221,10263
0.582,5
-0.0613,6495
0.0186,4525
-0.0401,6691
0.0789,3556
-0.351,9309
-0.397,6990
0.512,1093
-0.0404,7230
-0.011,5346
-0.119,8176
-0.258,9724
0.478,631
-0.209,7605
-0.0071,5764
-0.0582,7838
-0.0628,5957
-0.0326,5836
-0.0994,5447
0.136,2789
0.155,898
-0.851,10240
0.0463,3796
-0.0871,8231
-0.02,5882
0.0415,4091
-0.197,9835
-0.024,6127
-0.0869,7778
-0.145,7551
0.0296,4142
-0.468,10007
0.277,696
0.237,668
-0.0792,6964
0.144,1121
-0.0148,5661
0.136,1644
-0.0733,8034
0.0289,2723
-0.132,5999
0.319,227
0.259,468
-0.0151,5522
0.21,1138
-0.0402,7258
-0.129,8122
0.0278,4447
0.0122,4873
-0.288,9783
0.299,446
0.248,1165
0.00818,4650
0.00953,4772
-0.206,8650
0.0935,3241
0.0759,3724
-0.0704,8287
0.114,2087
-0.00376,5309
-0.113,7800
-0.272,10086
-0.0213,5739
-0.0642,9295
-0.0506,6598
-0.0679,7475
0.327,1711
0.176,772
0.171,807
-0.0797,7067
-0.0919,7273
-0.0538,6103
-0.0444,5864
1.7,96
-0.112,9952
0.0661,3443
-0.062,7688
0.561,703
-0.269,9841
0.0228,4362
-0.00496,5728
0.0992,1536
0.332,827
-0.201,9353
0.227,646
-0.18,7676
-0.0852,8594
-0.0441,6755
-0.216,8403
-0.178,9286
0.033,4412
0.232,896
0.0297,4009
-0.126,9777
0.233,516
-0.154,8692
-0.163,8348
0.0224,4226
0.00547,5120
-0.226,10180
-0.0174,6093
0.104,2381
0.326,315
-0.172,8358
0.102,1338
0.06,2476
-0.227,10095
-0.0781,7384
0.212,2026
-0.131,9372
0.0782,2621
0.208,1524
-0.25,9133
0.0479,3603
0.00181,5014
-0.0924,6587
0.149,474
0.0779,3357
0.121,1843
-0.0318,6039
0.807,188
-0.392,9847
-0.0591,8813
0.0984,1304
-0.0975,6830
-0.0801,8538
-0.362,7498
-0.096,5854
-0.0375,6804
-0.00515,5285
-0.0597,7118
-0.00395,5301
-0.267,8478
-0.281,9600
0.148,1159
0.055,2709
-0.0624,6289
0.222,1496
-0.185,8146
-0.253,8730
-0.118,7793
0.0175,4476
-0.0122,5368
-0.0756,7344
-0.31,9870
-0.0103,5077
0.0271,3713
-0.0276,6049
-0.553,10254
0.0157,4563
0.287,1366
0.196,617
-0.0382,7670
-0.0187,6052
0.131,2547
-0.0617,6621
-0.0697,6350
-0.223,9458
0.268,787
-0.0194,6085
-0.111,6404
-0.0876,7792
-0.122,8802
-0.0106,5493
0.0214,4507
0.0216,3354
0.204,557
0.108,1497
0.186,1627
-0.16,9076
0.0111,4468
-0.168,8637
-0.0358,8594
0.0291,4115
-0.225,10109
-0.068,6510
0.0684,2982
-0.0156,5859
0.0586,2835
0.152,1527
-0.0544,7127
-0.183,8683
0.213,1084
-0.0598,7398
0.00687,4845
0.081,3447
0.0813,2821
-0.129,7049
-0.175,7859
0.0291,3395
-0.0289,7221
0.058,3774
0.0366,4419
0.826,1172
-0.211,8286
-0.103,8350
0.09,1120
0.48,135
0.185,825
-0.0384,5772
0.176,1654
0.175,220
0.0814,1945
-0.142,7614
-0.0269,6510
-0.0285,5599
-0.236,8197
0.233,315
0.165,1577
0.00728,4897
0.0569,3622
-0.13,7595
-0.358,9710
-0.0919,8100
0.0557,2785
0.113,1271
-0.223,9304
0.0281,4217
-0.0801,7646
0.0524,3388
-0.0105,5511
-0.128,4834
-0.327,9286
-0.0338,7182
0.0806,1759
0.0228,4684
-0.147,9980
-0.248,10249
-0.0812,7001
0.0895,3084
-0.0857,8834
-0.0668,6893
0.0991,3431
-0.0587,7145
0.165,2101
0.291,434
0.142,2084
0.118,1312
-0.166,9968
-0.104,7506
-0.136,9410
0.0295,4346
-0.229,9676
0.00663,5012
0.0632,3578
0.0171,4531
-0.098,7498
-0.0734,7538
0.046,3103
-0.08,7537
-0.043,5983
0.0667,3421
0.0764,3273
0.206,472
-0.00977,5262
0.14,583
0.0017,4960
-0.0593,6868
-0.0164,5454
-0.33,8924
0.00184,4945
0.0189,4068
-0.00886,5120
-0.0796,7290
0.0161,4471
-0.179,8364
-0.111,8780
0.103,2584
0.16,1949
-0.035,6044
-0.0304,5975
-0.101,8885
0.245,388
0.41,461
0.819,885
-0.0709,7167
-0.0192,4969
0.107,3411
0.136,1582
0.0601,1952
0.173,492
-0.1,7531
0.359,40
0.0844,2232
-0.0896,8205
-0.0548,8691
-0.0912,7205
-0.193,10157
-0.025,6187
0.0673,3219
-0.211,10441
-0.278,10174
-0.132,8466
-0.0989,7423
0.162,978
-0.0617,8094
-0.00277,5079
0.00711,4560
0.00558,4924
0.151,1300
0.198,1502
-0.0836,7513
0.0405,3555
0.223,1488
0.347,2594
-0.137,8641
-0.442,9719
-0.0621,6801
0.0151,4299
-0.209,9586
-0.11,5172
-0.289,9423
-0.0201,6042
-0.0619,6765
-0.146,9778
0.0471,2703
0.0733,3033
0.067,2567
-0.025,5584
-0.148,7079
0.0762,2002
-0.17,9516
0.0239,4435
0.148,1353
0.0128,4650
-0.192,9019
-0.0708,7482
0.179,1029
0.0474,2983
-0.153,6916
-0.00832,5187
-0.124,8448
0.0154,4264
0.00947,4779
-0.128,8936
0.135,820
-0.0955,7275
0.00991,4817
0.0163,4587
-0.0371,6751
-0.128,8394
-0.0745,7681
-0.0376,6374
-0.0592,6879
0.0725,3054
0.0964,2356
0.203,1212
0.166,970
-0.172,9015
-0.143,7444
0.153,708
0.306,153
-0.243,10238
0.0244,4141
0.0537,4204
-0.237,8836
0.109,2076
-0.0184,5273
0.135,2018
0.156,950
0.00565,5069
0.163,1526
-0.0091,5567
-0.0557,6942
0.00264,4801
0.126,2871
-0.0142,5299
-0.00791,5566
-0.0265,6251
0.132,2292
-0.0217,5346
-0.15,6245
0.156,1704
-0.202,9536
-0.00928,5298
-0.341,5771
0.0774,3937
0.695,1608
0.278,648
1.08,883
-0.165,7835
-0.0913,7478
-0.0646,6074
-0.0938,7444
-0.0375,6913
0.175,559
-0.312,10008
0.167,1164
0.0994,2182
-0.029,5248
0.238,338
-0.0774,9192
-0.00806,5325
0.194,1204
-0.104,6581
0.133,2806
0.0861,2474
-0.211,10180
0.0734,3036
-0.0842,7664
0.135,1911
-0.26,9794
-0.073,8206
-0.228,10196
-0.148,9424
-0.0246,5828
-0.0462,6434
-0.271,9754
-0.159,9287
0.0434,3905
-0.0569,6551
0.0616,3230
-0.158,9366
0.0377,4016
0.0821,2887
0.00173,5232
-0.297,5365
-0.0638,6201
0.0148,4579
-0.245,9782
-0.0077,5563
-0.0988,7811
0.00148,5146
0.0621,3450
-0.18,8690
0.0199,4782
-0.0246,5884
-0.0177,7057
0.0606,3224
0.194,3269
0.0039,5013
-0.0555,6807
-0.0691,7983
-0.0187,5960
-0.246,9827
-0.0486,7863
-0.0295,6725
-0.189,8697
0.105,2030
-0.0907,9649
-0.0206,5746
0.0623,4076
-0.0895,7315
-0.0478,5405
0.0962,3477
0.0564,3502
-0.0783,7067
-0.135,7263
-0.0111,5207
0.0339,3977
0.177,1985
0.0778,2216
1.1,648
0.216,3161
-0.313,10247
0.00767,4643
0.047,3982
-0.000217,5229
0.0801,2022
0.022,3672
8.17e-05,5145
-0.15,8544
-0.329,10000
-0.212,9263
0.121,2728
0.045,3549
-0.584,9097
0.119,2663
0.197,1177
0.219,1080
0.23,447
0.196,1610
-0.158,9414
-0.219,9938
-0.0196,5342
-0.0519,6430
-0.131,9967
0.227,708
-0.00614,5057
-0.272,10365
-0.356,9671
0.02,4651
-0.000636,5341
0.0818,2208
0.0576,3413
-0.105,8332
-0.205,8605
-0.375,10421
0.0238,3848
-0.0247,6008
-0.0372,6124
0.0668,3221
-0.243,9579
-0.256,9064
-0.0282,6308
-0.0939,8388
0.15,1334
-0.036,6034
-0.076,5571
-0.103,7280
0.0496,3651
-0.0814,8699
0.178,1116
0.0539,3766
0.0704,3627
0.0764,3131
-0.075,7849
-0.0691,6980
0.126,1642
0.316,510
0.315,1494
0.0522,3323
0.0447,3460
-0.153,9313
-0.293,10254
0.00916,4870
0.0599,2426
-0.07,7192
-0.000851,5116
0.011,4378
0.209,1055
0.145,1533
0.0103,4942
-0.0721,6090
0.188,1228
0.00445,5012
0.0901,2932
0.0634,3474
-0.346,10220
-0.335,8792
-0.219,7996
-0.137,8087
0.0978,3441
-0.459,8893
-0.171,8220
-0.144,8142
-0.262,9641
-0.181,9250
0.145,1913
-0.282,8839
0.0407,3971
-0.145,9772
0.186,767
-0.206,8424
-0.16,9941
0.119,1771
0.0904,2740
0.261,272
0.154,199
0.136,1618
0.138,1020
0.403,2184
0.198,1243
0.0077,4331
0.0589,2716
0.00193,4949
0.199,2466
-0.0966,9144
-0.191,9792
0.137,890
-0.348,10106
-0.0918,10095
0.0379,3800
-0.672,10389
-0.0668,5837
0.0636,3231
-0.0119,5350
-0.192,9387
0.047,3570
-0.0337,6485
0.129,1089
0.0397,3509
-0.0384,6814
-0.0837,8339
0.00771,4756
0.117,2607
-0.189,8110
-0.0559,4805
0.107,1608
-0.148,8443
0.0334,3383
-0.0732,6563
0.0284,4157
-0.102,7445
-0.0829,7970
-0.0549,5833
-0.00717,5526
-0.06,6447
-0.267,9720
-0.131,9885
0.0117,4495
-0.035,6186
-0.203,9083
-0.0176,5012
-0.122,7749
-0.0889,9312
-0.152,9117
-0.39,6067
-0.547,7489
-0.0855,4605
0.172,1716
-0.379,8883
0.488,653
-0.0892,7084
-0.197,10267
-0.36,10346
0.222,1421
0.0351,3551
-0.179,9317
-0.0775,6428
0.421,1845
0.212,1830
-0.663,8344
0.562,1936
-0.0264,4967
-0.293,9572
-0.119,8998
0.571,485
-0.252,9690
0.0181,4223
0.00863,4561
0.245,1497
-0.0489,6847
0.133,1433
0.936,168
-0.0248,6872
0.0324,3779
0.203,867
-0.0669,6109
0.0997,2858
-0.215,9235
0.102,2370
-0.137,9068
0.31,1478
0.137,3204
-0.114,6251
-0.0796,7358
0.186,992
0.0265,4110
-0.112,7567
-0.0476,6503
-0.0195,5609
-0.073,7238
0.0932,1090
-0.0867,8604
-0.205,4180
0.181,1173
0.293,926
-0.185,8825
0.101,2091
0.14,613
0.0177,4435
-0.0663,7554
0.0743,4015
-0.0866,9732
0.0342,3902
0.0715,2190
0.0122,4491
0.0537,4283
0.321,1761
-0.0856,7708
-0.186,9041
-0.00383,5091
-0.0305,6112
0.103,2795
0.0303,4163
0.0772,2849
-0.00739,5610
-0.0093,5470
0.103,2035
0.0288,4214
0.0304,4168
1.08,327
0.109,2004
0.227,426
-0.114,8755
-0.054,5782
-0.135,7595
0.153,2739
-0.177,9948
-0.00461,5273
-0.149,9367
-0.248,9817
0.0495,4162
-0.093,5794
-0.0708,7512
-0.0707,8418
-0.131,8257
-0.292,10125
0.0104,4242
-0.00211,4904
-0.0945,9624
0.138,1587
-0.13,7774
0.141,1965
-0.433,10429
0.104,2788
0.116,2552
0.0409,3370
0.0144,4554
0.00643,4763
-0.475,9741
-0.0356,6060
-0.0432,6960
0.00352,4651
0.0928,2736
0.0801,2908
0.603,928
0.139,2261
0.00434,4728
0.0153,4134
-0.0173,5820
0.29,1081
-0.294,7174
0.0155,4763
-0.146,7924
0.0253,3770
0.745,90
-0.418,7202
0.137,3662
-0.122,8818
-0.0792,5478
0.195,1425
-0.097,7746
-0.363,9546
-0.0911,7898
-0.128,9711
0.0199,4229
-0.177,7852
-0.134,7933
0.254,1522
-0.0628,7078
0.219,433
-0.0343,6925
0.356,12
-0.0165,5588
-0.0436,7027
0.015,4647
0.0357,3830
-0.204,9747
0.0892,3470
-0.148,9358
0.979,427
-0.206,7564
-0.00662,5103
-0.162,8980
-0.0888,7915
-0.05,6832
-0.138,8474
0.0355,4030
-0.0106,5582
-0.294,9704
0.13,2073
-0.0401,6651
0.183,2034
0.0995,3075
0.352,1163
-0.0233,5360
-0.341,9097
-0.0789,6177
1.38,1244
-0.0899,8065
-0.0636,7017
-0.0335,6339
0.187,683
-0.0962,6941
0.0908,3008
0.0795,3413
-0.215,9466
-0.0436,6755
0.121,3430
-0.141,9662
-0.252,10102
-0.0545,6860
0.137,865
-0.161,9017
-0.0188,6064
0.0118,4685
-0.137,7670
0.0659,3114
0.0829,1854
-0.0449,7294
0.244,571
0.00463,4837
0.157,1504
0.00419,4866
0.0796,718
0.259,763
-0.298,10277
-0.16,8489
0.128,2235
0.125,1938
0.113,2396
-0.0576,7217
0.0551,3937
-0.266,9562
0.0291,4375
-0.0233,5724
0.0163,4544
0.069,2384
0.51,348
0.57,30
-0.164,7697
-0.37,9987
0.0402,4341
0.105,964
0.107,2285
0.0823,2659
-0.094,5352
0.285,2391
0.0506,2412
-0.0395,6525
-0.0785,7338
0.0688,2912
-0.0419,6660
-0.429,10368
0.102,1242
0.0438,3268
0.0585,2819
0.17,1413
-0.917,9992
0.0428,3713
-0.209,9093
-0.000372,5147
0.0576,3249
0.0401,4010
-0.227,8849
-0.0484,6379
-0.0902,9236
-0.0283,6345
0.0656,4132
-0.406,9582
0.121,1602
-0.305,10414
0.0608,2956
0.493,323
0.0478,3966
0.0738,2650
0.00165,4700
0.201,1360
-0.0495,6288
-0.0227,6471
-0.198,8086
0.203,795
0.15,1220
0.0449,4045
-0.0126,5725
-0.0127,5367
-0.00288,5288
0.0351,3944
0.0113,4822
0.0685,3235
-0.032,5981
-0.229,9521
-0.0637,6450
-0.0537,6804
0.114,2925
-0.114,10012
0.086,2618
-0.00648,5708
0.317,238
-0.366,10418
-0.208,8508
-0.154,9503
-0.0477,6932
-0.112,9150
-0.205,9368
-0.149,8041
0.285,765
-0.146,9436
0.159,897
-0.0824,7823
0.396,198
0.153,1507
-0.0264,6330
0.295,166
0.0827,2551
0.123,1129
-0.194,8902
0.0951,3013
0.696,67
0.204,1103
0.213,798
-0.112,9424
-0.0501,5869
-0.0725,6520
-0.0988,7187
-0.321,9631
-0.0372,6641
0.0936,1439
-0.0457,6069
-0.083,6770
0.12,2802
-0.158,8130
0.221,428
-0.018,6013
-0.11,7849
0.012,4624
-0.12,9037
-0.175,9054
-0.122,9484
-0.00583,5422
-0.037,5964
-0.218,9688
-0.273,9445
0.0564,4134
-0.081,6482
0.0902,1988
-0.314,9879
-0.111,7224
0.194,1645
-0.154,9704
0.0218,4281
-0.0618,8058
-0.202,9259
-0.068,6096
0.126,1411
0.118,2801
-0.0451,6778
-0.146,10260
-0.241,9768
-0.0452,6354
-0.0902,7797
-0.0389,6088
-0.194,9983
0.121,389
-0.0527,6738
-0.0599,7223
-0.132,7229
-0.161,9776
-0.134,9525
0.0189,4062
0.0804,3026
-0.0448,6914
0.0167,4716
-0.146,5045
0.0258,4180
-0.0651,7368
-0.0791,7952
-0.244,9946
0.0298,4412
-0.077,7205
0.00176,4846
0.126,2185
-0.0147,5638
0.531,869
-0.235,9111
0.121,2235
-0.103,8739
0.0803,3135
0.0452,4163
-0.197,8565
-0.069,7584
-0.234,7368
0.0288,4376
-0.16,9966
-0.146,8091
0.0723,3146
-0.0439,6631
-0.0707,6955
0.0186,3935
-0.00972,5152
-0.093,7333
0.131,1127
-0.0126,5451
0.168,2620
0.0162,4396
-0.111,9268
-0.416,10111
-0.208,9716
-0.0197,5223
0.485,531
0.172,788
-0.104,9571
-0.000448,5139
-0.227,8709
0.00256,5057
-0.158,9467
0.0436,3292
-0.0215,5556
0.0402,3740
0.256,1292
-0.282,10000
0.129,1529
-0.0911,8531
0.115,3053
-0.0707,8082
0.129,2322
-0.504,9158
-0.0158,6310
-0.0414,6584
0.033,3813
0.0361,4051
0.00227,4927
0.219,1182
0.047,3453
-0.0655,7585
0.326,700
-0.0805,6327
0.209,1657
0.0961,2869
-0.069,6751
0.103,2456
-0.105,7729
-0.0109,5446
-0.0101,5432
0.313,285
-0.0334,7046
0.0269,3724
0.294,967
-0.0447,6304
-0.068,6899
0.219,2461
0.239,36
0.0993,1006
-0.024,5871
-0.0451,6753
-0.0364,5616
-0.00723,4787
-0.00644,5518
0.0248,3988
-0.0803,8941
-0.269,9858
-0.166,8958
0.0822,2032
-0.0314,6377
0.0165,4417
-0.0238,5860
0.0421,3108
-0.312,7956
-0.151,8654
-0.0938,8104
-0.0636,7876
0.0584,3478
-0.117,8910
0.329,167
-0.282,9810
-0.00586,5294
-0.0719,7049
0.204,1198
0.131,2345
0.499,522
-0.213,6886
-0.0455,6611
-0.00821,5135
0.808,264
-0.147,7563
-0.143,8041
0.0976,2756
-0.0621,7509
-0.237,10370
-0.0398,6267
-0.119,9750
-0.0187,6466
0.0954,2622
0.0318,3612
-0.137,9664
-0.515,7300
-0.789,8797
0.245,3058
-0.152,5604
-0.515,9222
0.125,931
-0.257,8111
-0.13,8119
-0.186,9818
-0.0952,8145
0.011,4770
-0.0177,5742
0.0525,3450
-0.074,6780
0.106,2693
1.23,794
0.0493,3474
0.0683,1981
0.0435,3809
0.0637,3012
-0.111,7784
-0.218,9256
-0.174,9805
0.00523,4508
-0.643,10164
-0.181,8982
-0.0333,5249
0.0555,3919
-0.128,8991
-0.0641,8890
-0.0437,5648
-0.0899,8114
-0.0849,8026
0.0498,3546
-0.101,9612
0.0294,1065
0.00961,4782
0.115,1345
0.16,1623
0.122,1042
-0.0686,8272
0.123,2970
0.708,21
0.15,2403
0.019,4261
0.0389,4191
-0.0799,7779
-0.208,8808
0.31,2180
-0.326,9869
-0.156,7788
0.115,1545
0.155,610
-0.00602,5486
0.00775,4849
-0.0636,6391
-0.311,9344
-0.123,5148
-0.0313,6323
-0.0339,7134
0.0424,3956
0.483,486
0.225,673
0.0852,3977
-0.276,10213
-0.0537,7809
0.0462,3945
0.16,2157
0.178,953
-0.133,7576
-0.0414,6460
0.248,605
-0.0567,7630
0.0743,3509
0.0294,4128
0.0524,3586
-0.0185,5870
0.13,1112
-0.132,8524
-0.101,7651
0.681,47
-0.211,7780
-0.00518,5459
-0.198,9570
0.168,623
-0.147,9281
-0.26,9830
-0.319,10002
-0.0722,7289
-0.0712,5942
-0.0558,6434
-0.0611,6182
0.173,2233
0.254,1086
0.0164,4346
0.0909,515
0.451,811
-0.0744,9079
0.0307,4246
0.0604,3975
0.0276,4439
-0.0234,5330
0.112,1308
-0.0405,6089
0.0636,4022
-0.0494,7192
0.163,1455
-0.0271,7185
-0.0709,7005
-0.204,9073
-0.233,9631
-0.0897,7283
0.0663,2648
0.194,1011
-0.254,8869
-0.088,6829
0.0215,3798
0.137,2058
0.0147,4723
-0.14,9992
-0.198,10004
-0.129,8360
-0.0294,5807
-0.117,7335
0.114,2424
0.0324,3401
-0.296,5630
-0.382,9856
-0.12,9436
-0.0707,5611
0.035,3844
0.0322,4038
0.056,3981
-0.0827,8096
0.0728,3543
-0.102,8510
-0.0409,6168
0.137,1050
-0.114,7996
0.0545,2484
-0.0138,5269
0.272,774
-0.0975,8800
0.0998,1981
0.111,2655
-0.0123,5754
-0.156,8692
-0.0376,6376
-0.0199,5301
-0.178,9767
-0.0532,7250
-0.0632,7086
0.0767,3102
-0.232,9350
-0.0903,6920
-0.0415,6061
0.0832,2686
0.000679,4966
0.0269,4081
0.0699,3632
-0.0131,5419
0.116,2196
0.0514,3352
-0.295,9631
-0.291,4852
-0.0722,7227
0.00288,5136
0.0292,4098
0.316,2595
-0.307,8355
-0.233,9252
-0.236,4400
0.0646,3846
0.0799,2641
-0.255,9169
0.0216,4461
-0.0813,8402
-0.104,9584
0.0225,4442
-0.499,10338
0.129,2763
0.0401,3533
-0.0236,6653
0.0368,2989
0.0817,3190
0.0123,4513
-0.0899,8494
0.00263,4922
0.155,1553
-0.0826,8827
0.0074,4555
-0.0438,6623
0.0734,2224
-0.342,9816
-0.0535,6467
0.0773,1739
-0.178,7423
-0.0919,7476
-0.163,8926
-0.0789,7641
0.167,1164
-0.178,9102
-0.154,7954
-0.119,9235
0.162,901
0.219,2064
-0.0144,5445
-0.0694,7716
0.13,2711
-0.395,10268
0.48,389
0.321,706
-0.0522,7871
0.0238,4579
-0.0804,6275
-0.0026,5231
0.0767,3121
-0.0434,6020
-0.0736,7803
-0.0355,7054
-0.0573,7820
0.184,1710
-0.215,7592
0.0164,4659
0.279,266
-0.115,10038
-0.218,10075
0.349,648
-0.243,9562
-0.125,8589
-0.0724,8066
0.117,1778
0.0979,2401
0.0764,2764
-0.118,7485
0.00953,5026
-0.112,9202
-0.126,9102
0.285,1182
-0.00794,5669
-0.173,8132
0.141,1921
0.19,920
-0.0219,5764
-0.221,9886
0.0186,4163
0.218,507
0.098,779
0.21,970
-0.103,8709
-0.0555,6561
-0.0677,8634
0.0701,2609
0.0382,3921
0.131,762
-0.173,9402
-0.0971,8739
-0.234,10424
0.174,1084
-0.0267,5611
-0.129,8886
0.145,1366
0.00205,4956
0.38,149
0.177,1155
-0.0438,6468
-0.238,9583
0.134,1940
-0.0384,6216
0.00155,4952
-0.131,7236
-1.17,10383
-0.0445,7357
0.0346,3745
0.0419,3618
0.097,3109
-0.129,9015
0.0838,3431
0.0879,1586
0.025,3969
-0.0528,6934
-0.057,6718
0.021,4555
-0.235,9058
-0.122,9687
-0.0383,6775
-0.0934,7535
-0.164,9761
-0.0971,6930
-0.168,8788
-0.158,8828
-0.116,9779
-0.029,5921
-0.203,9830
-0.0347,5790
-0.0671,7637
0.26,1125
-0.145,8299
0.264,806
-0.237,8966
0.0145,4470
-0.0126,4876
0.172,653
-0.0387,7607
-0.178,8890
-0.343,9355
0.0524,3033
0.125,2914
-0.025,5819
0.0765,1858
0.402,206
0.0349,3837
0.0946,2509
-0.582,10367
-0.212,8370
0.0308,4198
0.23,1321
-0.147,7658
0.14,1116
0.0547,3421
-0.0205,6568
0.158,495
0.0157,4406
0.0335,3944
0.443,82
0.0228,4148
-0.108,10055
0.041,2823
-0.093,8453
-0.0229,5828
0.252,1063
-0.105,8604
0.000641,5050
0.0506,2764
0.0497,3114
0.0829,2933
0.13,296
0.408,1670
-0.0368,6436
0.0181,4548
-0.266,9147
-0.195,7716
0.229,339
-0.231,9625
-0.0277,6141
-0.114,9994
-0.062,6433
-0.0493,7035
0.305,207
0.0859,2386
0.248,326
-0.0476,6641
0.0303,3606
0.161,1516
-0.0174,6248
-0.024,6281
-0.0992,8172
0.0751,2366
-0.0209,5981
-0.324,10178
0.342,853
-0.26,5091
-0.0786,8492
-0.0499,7144
0.102,1865
0.21,524
-0.298,9980
-0.0305,5956
0.124,1748
-0.101,9147
-0.316,10408
-0.114,8253
-0.107,6652
-0.148,8545
-0.154,10210
-0.0411,6776
-0.0927,7795
-0.0902,8262
-0.106,7056
0.244,99
0.0414,3357
-0.148,8631
-0.0918,8217
-0.137,7781
0.0135,4557
0.0482,4072
-0.047,6556
-0.102,8386
-0.0551,6161
-0.199,8898
-0.181,9416
-0.0766,5335
-0.0679,8123
-0.0342,6733
-0.024,5701
-0.438,8201
0.127,1654
0.992,254
-0.0358,5712
0.188,390
0.46,881
0.00854,5013
-0.155,7330
0.142,2241
0.0235,3979
0.0752,3045
0.278,1227
-0.397,10059
0.253,1088
0.115,1428
-0.0728,8550
-0.00603,5631
-0.133,7748
0.233,1825
-0.0445,6250
0.0575,3662
0.53,726
-0.0217,6345
0.0294,4169
0.17,1102
-0.0402,5705
-0.242,10270
-0.463,10137
-0.0338,6699
0.243,162
-0.0701,5971
0.162,3486
0.0515,3492
-0.0678,7554
-0.11,8043
0.0496,3933
-0.346,10408
0.0353,4244
0.192,2215
-0.217,10419
-0.146,9536
0.00883,4716
-0.231,10004
0.000739,4854
0.0922,2121
0.142,1051
-0.11,9075
0.107,2188
0.143,1620
-0.0851,5651
-0.215,9517
0.114,1290
0.162,629
-0.434,10385
-0.0257,5981
0.0526,3587
-0.107,8760
0.00789,4810
0.633,444
-0.0501,6483
0.0209,4564
-0.195,9317
-0.0686,6977
0.247,485
-0.0531,6653
-0.0503,5977
-0.00637,5625
-0.0413,6062
-0.0175,5773
0.125,1598
-0.00339,5304
0.688,7
-0.238,10452
-0.0307,5769
0.122,2350
0.0146,4560
0.0802,1625
0.182,1281
0.363,205
0.0775,2956
0.111,2190
-0.131,7873
-0.0987,8642
0.029,4625
0.243,1675
0.346,93
0.0924,3408
0.246,548
-0.0226,6240
-0.0185,5567
-0.205,8359
-0.0901,8215
-0.0675,5849
0.0363,3931
-0.0184,6139
0.173,743
-0.357,8512
-0.218,9169
0.159,2395
-0.00819,5901
0.101,2145
-0.0626,6693
0.041,3860
-0.0546,6483
-0.199,9557
0.00226,4956
0.0344,3878
-0.0466,6360
0.108,2465
0.104,2837
-0.0626,6730
-0.0832,8310
0.17,1831
-0.379,10092
-0.219,6349
-0.2,6686
-0.745,8871
-0.287,10428
-0.0827,8816
0.241,412
0.306,668
0.0619,3208
-0.0726,6917
0.167,942
-0.208,7431
-0.00497,5702
0.129,2224
0.0453,2927
-0.0399,6325
-0.112,7989
-0.0169,5900
-0.221,9402
-0.166,9167
-0.00471,5268
0.223,2561
0.0342,3875
-0.195,8978
0.873,1141
-0.173,8396
0.0654,3210
-0.17,8374
-0.227,10121
-0.159,7636
-0.315,8749
-0.015,5505
-0.184,8867
-0.0294,6308
0.0134,4506
-0.136,9898
0.0673,3201
-0.0697,6734
-0.283,7663
0.0129,4550
-0.02,5815
-0.0667,9094
-0.0943,7154
-0.252,9104
-0.464,7866
0.148,3077
-0.0996,8838
0.0265,4297
-0.064,6094
-0.0401,6998
-0.0716,6206
-0.342,10025
-0.194,9676
0.149,1738
-0.0431,6418
-0.126,7891
-0.0218,5566
0.128,2426
-0.0688,8333
-0.0865,8924
0.0258,4381
-0.187,10307
-0.119,8245
0.159,1382
0.0212,4619
-0.00815,5215
-0.0788,7516
-0.048,6632
-0.0822,7033
-0.152,8809
-0.0558,7466
-0.145,8710
-0.0672,5938
-0.0503,6366
-0.00512,5091
-0.095,6105
0.0842,2575
-0.0111,5837
0.00562,4662
0.0842,1578
-0.049,6323
0.225,251
0.00985,4521
-0.138,9102
-0.26,7078
-0.0901,5866
-0.108,8357
0.715,1405
0.0912,2772
-0.0539,9191
-0.189,10075
0.066,2819
0.131,2657
0.139,781
-0.125,8860
0.29,323
0.251,864
-0.0329,6314
-0.0194,5703
0.0345,3759
-0.101,8241
0.128,549
0.217,1317
0.0644,2958
-0.0429,6218
0.0122,4571
-0.183,8419
-0.0784,6960
0.0263,4339
-0.23,8214
-0.0622,6290
0.159,2053
0.153,453
-0.0234,5818
0.0627,2905
0.0697,4033
0.0314,4394
0.0489,4085
0.0853,1693
-0.0488,6498
-0.0896,6818
-0.0385,6169
0.0498,2885
0.617,501
0.0962,1680
0.111,463
-0.00363,5216
0.217,1722
0.0387,4019
-0.0253,5237
0.0737,2834
0.0486,4018
0.0355,4403
0.137,2044
-0.172,5063
0.208,2040
0.0453,3466
-0.068,7789
0.115,2564
-0.269,10245
0.128,1799
-0.0615,6301
-0.00163,5245
-0.089,9574
0.251,913
0.179,680
0.0129,4885
-0.293,9790
0.0633,2973
0.035,3895
-0.00588,5224
0.232,514
0.00973,4591
0.0438,3355
-0.0769,7145
0.115,1313
0.179,1755
0.0659,3760
0.0901,1931
-0.111,6907
-0.115,9559
0.0906,2445
0.0129,4951
0.0319,3720
-0.411,9615
0.012,4608
-0.0119,5560
-0.0128,5795
-0.605,9423
0.215,1783
-0.158,6997
0.0764,1661
-0.0676,8278
-0.0247,5854
0.145,1156
-0.284,10222
0.227,1117
-0.169,9596
0.0755,3369
-0.0122,5391
0.197,1299
0.659,131
-0.009,4987
0.0854,3143
0.0853,2914
-0.241,6443
0.209,1873
0.155,2222
0.0362,4194
1.11,3
0.439,876
0.166,3162
0.17,2212
-0.176,6924
-0.0489,6799
-0.0911,9549
-0.0757,8722
-0.117,8479
-0.19,9938
-0.224,9404
-0.1,7809
0.0732,2594
0.0947,2519
-0.375,9414
-0.172,8735
-0.00276,5306
0.0896,2494
0.0525,3929
0.0988,3411
-0.0668,6879
0.0685,2438
-0.147,8236
-0.103,8802
-0.112,8727
-0.0291,8162
0.334,564
0.0441,4228
0.184,1656
-0.148,8493
0.219,97
-0.00262,5404
0.2,956
0.179,360
-0.0387,6130
-0.0859,6819
-0.0514,7670
-0.0971,8212
-0.493,7097
0.19,1040
-0.171,8601
0.0025,4902
-0.0107,5421
-0.0373,6344
-0.0193,5683
0.191,1247
-0.198,8107
-0.39,9424
0.149,324
-0.0667,6877
-0.0463,6871
-0.0328,5436
-0.183,8156
0.0236,4547
-0.336,10228
-0.193,9736
0.0715,3139
-0.288,9937
-0.06,7551
-0.116,7625
-0.000283,4945
0.0577,3607
0.105,2318
0.1,2908
0.0661,3514
0.242,724
0.0276,4067
-0.0244,6094
0.0497,3680
0.214,1632
0.0865,2389
-0.201,9748
0.0765,2001
0.0837,2309
0.0821,1987
0.102,2893
0.112,3080
-0.183,8316
-0.0254,6349
0.0999,1010
-0.167,8878
-0.00428,5114
-0.0175,5410
0.222,1937
0.0869,2289
-0.0723,7396
-0.0965,8514
-0.0656,7014
-0.0461,7139
-0.00935,5498
0.00224,5083
0.0891,3059
-0.234,8830
0.518,32
0.0151,4710
-0.179,7755
0.215,707
-0.0339,5862
-0.04,5720
-0.0689,7809
0.0165,4595
0.21,2302
-0.108,8565
-0.0288,6095
-0.262,10245
-0.0615,7150
-0.0202,5810
-0.101,6555
-0.0682,7404
0.046,3134
4.6,76
0.0654,3338
0.22,969
0.0127,4663
0.0608,2960
-0.169,8575
-0.0652,6763
0.341,895
-0.0191,5910
-0.0492,8004
-0.0282,6664
-0.0137,5920
-0.0283,6273
0.0134,4476
-0.197,8838
-0.234,8642
0.0277,3912
0.0797,2364
-0.0666,7196
-0.229,9732
0.165,2388
-0.0135,6127
0.0147,4576
-0.0475,6912
0.225,2598
0.0346,2653
-0.00959,5647
-0.0305,6734
-0.0374,6361
-0.549,9995
-0.0554,6402
0.0137,3997
-0.031,7815
-0.282,6138
-0.479,6736
0.0713,2055
-0.00827,5420
0.27,859
-0.0473,6383
-0.364,10299
0.374,331
-0.0128,5524
-0.028,5884
0.0777,2822
-0.438,10344
-0.0924,7471
0.129,1589
-0.132,8575
0.026,3779
-0.113,9265
0.204,1372
0.0749,4020
-0.191,9033
-0.239,9707
0.109,2917
-0.0423,7419
-0.0555,6984
-0.103,7581
-0.403,9386
-0.0639,6347
-0.124,8964
-0.000263,5132
0.245,66
0.0923,2151
-0.0186,5544
-0.144,7730
-0.142,9237
-0.0137,5837
0.0341,4002
0.0911,2811
0.0541,3078
0.0621,3832
-0.122,9902
-0.0565,7407
0.107,2370
0.0403,3705
0.00194,4689
-0.172,9554
0.0539,2864
-0.0353,6233
0.0951,2558
0.0504,3925
-0.112,8883
-0.045,6098
-0.0446,6207
0.0877,798
0.221,488
-0.0801,7943
0.171,1954
-0.00263,5249
-0.0932,9623
0.0774,2123
0.107,1856
-0.278,7682
0.138,785
-0.113,7467
-0.0447,7562
0.0671,2391
-0.187,9693
-0.17,8932
-0.0212,5861
0.0222,4557
-0.00915,5317
-0.107,8620
0.0346,4134
-0.0707,8399
-0.115,7128
0.0314,4398
0.261,95
0.145,2045
-0.0579,7153
-0.122,8320
0.137,1535
0.252,583
0.0426,3832
-0.119,9997
-0.0844,7974
-0.221,9877
-0.187,9697
0.178,1025
0.0223,3725
-0.0347,6783
0.0512,3486
-0.232,8813
0.201,1119
-0.0088,5431
0.016,4438
0.0117,4768
-0.343,10444
0.0583,4214
-0.341,10105
-0.146,9149
-0.198,9710
-0.523,8331
0.716,1112
0.211,1108
0.0412,4240
-0.0668,7988
-0.101,7115
0.121,2910
-0.103,8080
0.00143,4901
-0.0594,7115
-0.113,8368
0.0763,3814
0.474,0
0.232,1256
0.121,1542
-0.0676,8327
0.131,1062
0.0681,3682
-0.236,9213
0.148,449
-0.0667,7309
-0.0642,7206
-0.012,5429
-0.159,7207
0.36,262
0.142,1732
-0.017,5449
-0.114,8363
0.0219,4386
0.212,864
0.0561,3625
0.0729,3336
-0.119,7906
-0.14,8785
-0.597,7790
-0.0123,5506
-0.0513,6249
0.0519,3873
0.142,608
0.0861,2174
-0.0738,8717
-0.0845,6650
-0.244,9995
-0.299,10248
-0.304,9679
0.0437,3695
-0.0447,7206
0.116,2116
0.128,2997
-0.107,8070
-0.0431,7158
0.106,2107
-0.171,9687
-0.067,6811
-0.132,6549
-0.0328,4980
-0.0937,7189
-0.0742,9090
-0.026,5894
-0.0508,4742
0.0157,4546
-0.0817,8387
-0.00163,5058
-0.0707,6883
-0.159,9817
-0.0484,5549
-0.0493,4616
-0.114,8663
0.0309,4138
-0.0964,8064
0.417,27
0.0367,4271
0.311,1294
0.0186,3787
-0.0598,6369
-0.229,10079
0.0132,4495
0.273,1528
0.319,176
-0.0405,7021
-0.0475,6983
-0.0366,6482
-0.0691,7161
0.38,287
-0.29,9549
0.112,2261
-0.318,10452
0.156,1576
0.0708,2529
0.313,767
-0.0738,7013
-0.0523,6949
0.028,4241
-0.0633,6357
-0.116,8370
0.168,1277
0.125,1892
0.1,2008
0.112,1099
0.0213,4522
-0.316,7000
-0.599,10339
-0.58,10270
0.025,4135
0.0751,2372
0.111,2475
-0.051,6474
-0.121,8615
0.59,105
-0.0803,8590
-0.103,8054
0.205,1173
-0.149,9421
0.0541,3527
-0.11,8141
-0.159,9733
-0.2,9701
-0.221,9806
0.115,2973
-0.0757,6935
-0.27,10072
-0.0209,5951
-0.0745,9478
-0.165,7933
0.158,1374
-0.131,8161
-0.127,7166
0.204,770
-0.258,9440
-0.0858,7677
0.151,849
-0.0426,5726
-0.149,10048
0.0173,3940
-0.189,7088
0.0782,2322
-0.26,9102
-0.131,8731
-0.0139,5683
0.0206,3868
-0.19,9935
-0.192,9709
-0.00187,5189
-0.182,7231
-0.00468,5415
-0.0964,8920
0.0345,3564
-0.158,8392
-0.0802,5434
-0.354,9918
0.282,1101
-0.0132,5440
-0.0571,6551
-0.137,9916
-0.165,8055
0.312,553
0.166,991
0.00745,4748
0.163,1389
-0.263,10170
0.0457,3273
0.011,4724
-0.0247,6378
0.218,181
-0.0503,5705
-0.0261,5860
0.11,2988
-0.199,8394
0.345,181
0.343,295
-0.401,8213
0.239,2202
0.375,2699
-0.296,8318
0.122,2840
-0.032,6088
-0.0307,5838
0.186,644
-0.235,8546
0.334,1685
-0.0135,5583
-0.55,10299
-0.206,8618
0.0409,4173
0.271,628
0.151,2656
-0.0398,7002
-0.0169,5718
-0.164,9352
-0.599,7791
0.0666,3264
0.0281,4002
0.193,1174
0.0407,3933
-0.263,9119
-0.169,8957
-0.362,8626
0.221,1776
0.0201,4354
-0.0673,8426
0.0729,3106
0.0957,2485
0.0322,4383
0.0958,2170
0.0352,3659
-0.0322,5795
0.301,162
-0.136,7913
0.0276,4161
-0.0329,6281
-0.139,9805
-0.000117,5000
0.0168,4529
-0.0496,6474
-0.0837,9282
0.0459,3584
-0.0732,8867
0.0404,3673
-0.187,9087
0.0457,3950
0.139,1894
-0.000927,5070
-0.0926,9731
-0.0959,8908
-0.0757,7909
-0.00978,5485
-0.417,9210
-0.0945,6656
0.0069,4908
-0.00612,5393
-0.0722,7359
0.126,2754
-0.00732,5541
0.00466,4846
-0.0652,8708
-0.0886,9822
-0.3,9221
-0.102,7108
-0.00446,5177
0.0621,3506
0.447,53
-8.84e-05,5164
-0.184,9808
-0.0584,6561
-0.0485,5830
0.0664,2904
-0.0547,8334
0.331,803
-0.438,10018
0.0223,4534
0.194,2433
-0.466,9446
0.0739,2698
-0.023,5764
-0.336,10174
0.366,1081
-0.233,9299
0.0107,4675
-0.00114,5341
0.354,105
0.0655,3034
0.729,358
0.0364,3768
0.171,1343
0.0419,3321
-0.0613,5667
0.0832,3203
-0.0473,7046
-0.0626,6841
-0.0301,7308
-0.172,10111
-0.0802,6865
0.00756,4916
0.0249,4490
0.153,2245
0.094,1121
-0.0181,5577
0.437,925
0.382,2362
-0.129,7727
-0.48,7813
0.104,3331
-0.0807,7276
-0.0162,5648
-0.026,5793
-0.0651,7857
0.0291,3747
0.0357,3651
-0.0644,7795
0.0947,2988
-0.0932,7987
0.00723,4715
-0.167,9366
0.0468,4013
0.0758,3235
0.0138,4509
-0.0429,7936
-0.0931,9326
0.04,3626
1.86e-05,4894
-0.0888,7007
-0.108,8767
0.223,292
-0.0775,7126
0.161,1453
0.243,1416
0.0782,3063
0.241,1109
-0.0373,6701
-0.0768,7711
-0.0544,6656
-0.142,9157
0.27,957
-0.0189,5860
-0.19,9488
-0.139,7936
-0.297,10291
0.0132,4525
-0.122,7662
-0.0536,6135
0.302,413
-0.0973,9739
-0.0524,6132
0.0582,2337
-0.152,8921
-0.261,9063
0.096,1715
-0.109,9537
-0.0716,7020
-0.0405,5702
0.235,2131
0.482,905
0.23,355
-0.115,8997
-0.000513,5118
-0.244,9680
0.115,2971
-0.112,7271
0.608,3
0.07,2121
0.134,1036
-0.067,7614
0.0164,4520
-0.0791,8499
0.173,904
-0.269,10399
-0.0946,8054
-0.236,10315
0.0697,2997
0.111,1580
-0.0395,7380
0.0689,2727
-0.0723,6996
-0.195,9555
-0.0466,6148
0.174,661
0.205,1475
0.0143,4777
-0.209,10056
-0.0835,7837
0.351,898
0.127,2115
-0.338,10152
0.0939,2093
0.142,1091
0.0635,3798
0.328,890
0.00858,4821
0.288,599
-0.138,8700
0.172,824
0.194,1672
-0.0803,8278
0.288,1971
0.465,1333
0.132,2313
-0.147,7343
0.325,633
0.0281,4088
0.00134,5092
-0.0645,8177
-0.0386,6311
-0.195,9411
0.17,1814
-0.0948,7444
-0.258,10047
-0.0684,7393
-0.0158,5688
-0.103,8508
0.00914,4673
0.109,1939
-0.256,10432
-0.00196,5205
-0.0609,5842
-0.0664,6444
-0.0976,8057
-0.147,8473
-0.0675,8649
-0.0213,5574
0.0303,4004
0.108,1991
-0.109,8369
0.232,744
0.054,3873
0.0249,4235
0.0797,1543
-0.129,8603
-0.208,9723
-0.0494,6615
-0.134,7969
0.135,1843
0.0478,3830
0.0862,2341
-0.032,5503
0.0439,4224
0.0131,4523
-0.0575,8474
0.00954,4764
0.134,1868
0.233,200
-0.419,9452
-0.0446,7759
-0.0441,6996
0.129,2355
-0.086,6980
0.319,1374
-0.011,5437
-0.172,9470
0.103,2082
0.078,2932
-0.0657,6763
0.137,1476
-0.233,7308
-0.0645,6649
0.0357,3770
0.312,474
-0.0809,6573
-0.0368,6046
-0.206,8262
0.0789,1421
-0.135,9702
-0.073,7581
0.0589,3107
0.0139,4430
0.0614,3879
-0.013,5222
-0.182,8856
0.0814,3808
-0.0667,7572
-0.186,9706
-0.117,9344
-0.0536,7687
-0.00298,5303
0.306,369
0.0154,4700
-0.16,8929
-0.0588,6705
-0.0436,6989
0.0576,1897
-0.0472,6718
0.144,1569
-0.303,10217
-0.0422,6197
-0.0474,6411
0.0213,4074
0.00398,4646
-0.121,7161
0.107,2312
0.0879,2510
-0.186,10368
-0.15,9258
0.207,1220
0.0697,3233
-0.13,7797
0.0195,4444
-0.0226,7089
0.0431,3621
-0.056,6252
-0.182,9020
-0.436,9767
0.115,2672
0.184,594
-0.035,7222
-0.0755,8128
-0.0139,5416
0.987,167
0.106,2712
-0.129,9871
-0.0862,9284
0.0501,4050
0.149,876
-0.132,8626
0.133,2662
-0.0246,5972
-0.00372,5100
-0.187,8890
-0.126,7216
-0.0404,6253
-0.0484,5868
0.192,447
0.0337,3961
0.298,97
0.123,2209
-0.0923,8645
-0.383,8549
0.0698,2137
-0.0114,6272
-0.0706,6559
0.0767,2846
-0.165,6425
0.381,68
-0.0985,9479
0.146,938
0.191,2175
-0.0134,5136
0.134,2823
0.158,2922
0.0434,3567
0.0256,4402
-0.149,9398
-0.0798,8128
-0.0389,6573
0.14,2616
-0.0678,8224
0.127,1882
-0.189,9327
0.079,2815
-0.305,6203
0.0469,4059
-0.145,9127
-0.104,8180
0.061,2769
-0.137,7301
0.107,2361
-0.2,7942
-0.122,8595
0.201,672
-0.241,9817
0.297,2500
0.0268,4433
0.644,340
0.0454,2488
-0.123,8389
0.0254,4532
-0.0407,5602
-0.127,9330
-0.026,5126
-0.0721,7847
0.0573,3806
-0.0288,5530
-0.265,9996
-0.0918,8026
-0.119,7171
0.0932,1354
-0.0301,5742
0.0528,3687
0.0409,3895
-0.202,7772
0.138,2104
-0.0753,8551
0.00527,4697
-0.14,8514
-0.171,9800
-0.205,8396
-0.269,10109
0.115,1118
-0.0648,7000
0.0198,4799
-0.311,10245
-0.0981,9414
-0.067,6114
-0.118,9515
-0.0166,6457
-0.0206,6062
-0.0044,5292
-0.0866,7625
0.0146,4529
-0.1,7330
0.0246,4089
-0.0205,6110
0.0466,4199
0.0743,3537
-0.216,7884
-0.23,7511
-0.0585,8781
-0.0983,9426
0.155,2359
0.12,1134
0.11,2589
-0.115,8009
0.0882,1539
-0.0306,7509
-0.516,8309
-0.834,9967
-0.974,9823
-0.089,6663
-0.413,9627
-0.108,9711
0.22,896
0.302,531
0.0467,3381
-0.0366,7505
-0.0117,5437
-0.0369,6257
-0.086,6851
0.0348,4107
-0.0122,5509
0.0289,4073
0.0636,2316
-0.248,10322
-0.279,9915
-0.171,8390
0.157,2132
-0.224,10131
0.111,3258
0.118,2812
-0.0398,6264
0.242,1058
1.22,71
-0.102,7661
-0.0322,6549
0.0624,2750
-0.236,5321
-0.347,8601
0.117,3848
0.0353,4343
-0.116,9367
0.181,1110
0.616,1809
0.105,3641
-0.595,7976
1.69,790
0.078,2750
1.29,1217
-0.447,9873
0.904,576
-0.0066,5418
-0.341,6038
0.0567,3421
-0.0148,5630
0.21,889
-0.0179,5602
0.0936,2234
0.0647,2898
-0.072,6642
-0.188,9237
0.0151,4220
-0.462,9092
-0.164,9044
0.164,1274
-0.121,9912
-0.177,8361
-0.00588,5492
0.159,939
0.244,984
-0.0356,5642
-0.176,10326
0.192,659
0.0969,2057
0.00311,4863
0.0807,1210
0.00452,4827
-0.14,7246
0.223,1656
-0.31,8572
-0.201,9663
0.196,2052
-0.00292,5278
-0.437,8809
-0.117,5815
0.0177,4676
0.0582,3665
-0.0474,6664
0.183,1189
-0.208,9929
-0.0429,6447
-0.109,8045
0.0802,2712
0.0582,2291
-0.118,8847
0.00143,4905
0.253,797
0.0733,3077
-0.175,8175
0.00536,4879
-0.0185,6341
-0.296,8463
-0.399,8592
-0.413,7778
-0.0363,5913
-0.0745,6290
-0.0116,5236
0.119,2834
-0.127,8229
0.197,429
0.24,52
-0.000794,5278
-0.192,7648
0.229,497
0.649,1714
0.037,3937
-0.0214,6035
0.0429,3579
0.247,963
-0.113,8637
-0.174,8039
0.307,1128
0.0745,1823
-0.103,7809
-0.0392,6357
0.41,81
-0.0214,5655
0.0205,4495
-0.0241,5974
-0.143,9329
0.213,2290
-0.0468,5984
-0.125,7980
0.384,986
-0.129,9865
0.459,116
0.0635,4127
-0.148,9376
0.31,1289
0.0802,2069
-0.0767,6363
-0.184,9078
-0.0727,6617
-0.0507,7120
0.127,2018
0.0919,1558
-0.0504,7023
-0.0888,9660
-0.124,8297
0.2,923
0.0347,4237
0.252,2312
-0.0841,7723
-0.111,9153
-0.00658,5311
-0.00488,5354
-0.582,9830
-0.367,10109
-0.0246,5865
0.021,3517
-0.442,8050
0.546,473
0.128,3543
-0.223,7479
0.27,1617
0.398,1619
0.266,565
0.479,43
-0.0145,5560
0.156,1236
0.0452,2224
-0.193,10428
-0.0884,7940
0.11,2175
-0.126,7401
0.073,2755
0.0867,3620
0.0523,3321
0.115,2008
-0.121,7664
0.0985,2154
-0.0361,5990
0.023,4035
-0.184,9678
-0.0893,7720
0.323,660
0.0327,4332
-0.273,9519
-0.0843,8071
-0.13,8480
-0.206,8919
-0.0654,7783
0.802,69
0.0699,2706
-0.0443,5675
0.21,92
-0.0659,7499
-0.098,7855
0.0569,3685
0.144,3580
-0.0198,5822
-0.0201,5686
-0.105,9258
0.0146,4660
0.327,483
0.0428,3358
0.00785,4802
-0.0294,6541
-0.116,7125
0.066,3555
0.129,2781
-0.0876,7086
-0.0605,7235
-0.108,7913
0.224,1492
-0.0189,5781
0.246,1145
-0.114,8235
-0.023,5526
-0.116,9343
-0.24,8717
0.0161,4502
-0.0869,7044
0.194,1063
-0.134,8466
-0.0288,6647
0.0437,4053
0.557,249
-0.0432,5133
0.043,3755
0.131,2552
-0.191,9667
0.0115,4649
0.403,438
0.0882,1500
0.00214,5244
-0.141,9044
0.147,1542
-0.379,10356
0.0145,4819
0.234,1293
-0.109,9695
-0.15,9671
0.161,3293
0.0235,4378
0.0771,3928
-0.00226,4965
-0.0808,7664
0.0159,3989
-0.0518,7901
-0.0704,7159
0.212,1653
-0.0501,6752
-0.109,8572
-0.0741,7349
-0.032,5729
0.153,878
-0.155,7940
-0.00211,5278
0.00601,4883
0.0258,3905
0.075,3708
-0.185,10366
0.0531,3832
-0.0343,5399
-0.154,7442
-0.0742,7241
-0.0527,7179
-0.0037,5046
0.0313,3823
0.02,4681
-0.0148,5413
-0.0206,6620
-0.24,10154
0.127,2249
0.0293,3825
-0.0743,7286
-0.0933,8904
-0.00728,5621
0.0852,2254
0.00617,4784
-0.26,8634
-0.183,7217
-0.0957,8470
0.0169,4307
0.207,1473
0.0141,4698
0.216,1125
0.892,362
0.0724,3277
-0.0519,6604
0.354,678
0.176,1148
-0.0574,5649
-0.117,9021
-0.00494,5062
0.37,65
-0.361,10308
0.154,1409
-0.363,10127
0.415,1161
-0.0214,5971
0.0421,2144
0.0898,2173
0.266,1486
-0.111,8791
-0.00147,5101
0.0472,2980
0.135,781
0.557,599
0.0603,2821
0.0804,3928
0.247,941
-0.162,9774
-0.0344,7158
-0.113,8802
0.161,641
0.0366,4116
-0.0136,5811
0.00378,5117
0.0182,4082
-0.106,7137
-0.162,9172
-0.127,8821
-0.0371,6333
0.623,1551
-0.0423,7329
0.0416,3935
0.198,585
-0.183,8971
0.177,572
0.0764,2587
0.25,1095
-0.00167,5006
0.0989,2455
0.422,4
-0.379,10259
-0.0998,8869
0.0495,3784
-0.00785,5608
-0.0511,6905
0.000355,4896
0.0115,4127
-0.00569,5610
0.0661,2111
0.0306,3930
0.0699,3037
0.073,3602
0.154,1203
-0.0416,6126
-0.00171,5019
0.0956,2065
-0.0397,5876
0.0626,3149
-0.0945,5789
-0.29,10141
-0.212,10151
0.0418,4164
-0.0239,5621
-0.241,9056
0.0514,3795
-0.0166,5847
0.00985,4683
0.0234,4427
-0.0813,7234
0.0251,4669
0.0752,2431
-0.0247,5329
-0.214,9514
0.0486,3278
-0.119,7914
0.198,564
-0.0158,6176
-0.06,7960
0.102,2575
-0.159,8695
0.0406,4225
-0.174,7977
-0.311,9571
0.0875,1258
0.116,1359
-0.163,9547
0.201,1035
0.118,3753
0.373,373
0.0111,4609
-0.108,8066
0.316,520
0.00486,4917
-0.0402,4799
-0.136,8606
-0.107,9056
0.0405,3068
-0.0684,5983
-0.0455,5868
0.0011,4680
0.19,1859
-0.175,9227
-0.312,9407
0.221,436
0.409,271
-0.0736,7948
0.0564,4046
0.045,2513
0.113,805
-0.197,9680
0.0389,3916
-0.0234,5800
0.212,2035
-0.0778,7601
0.249,92
-0.108,9387
0.06,2354
0.0699,3629
-0.271,10339
0.0258,3254
-0.164,8787
0.0145,4876
0.146,2065
0.0103,4564
-0.0631,6683
-0.0108,5466
-0.0224,7715
0.194,1597
0.0575,3613
0.265,1431
0.0584,2840
0.0189,4012
-0.00649,5033
-0.207,7733
-0.05,6712
-0.0568,6468
0.059,2967
-0.175,9913
0.314,283
0.0383,3763
0.0181,4483
-0.0707,7115
0.0763,2154
0.00822,4872
-0.0714,9545
0.0422,4262
0.0575,3046
-0.359,9312
-0.306,10454
0.0976,1688
0.0472,3478
-0.0171,5738
0.474,182
-0.0473,7012
-0.368,10126
-0.0399,8252
0.00809,4778
-0.0273,5678
-0.221,9757
-0.16,8884
-0.187,9718
0.0704,2056
0.12,1070
0.127,2150
-0.18,8864
0.108,907
-0.135,9192
0.0214,3975
-0.172,9960
-0.2,8729
-0.0352,6547
-0.0611,5594
-0.0627,6694
-0.132,8943
0.044,2358
0.432,169
0.0106,4802
-0.0908,7674
-0.113,7834
-0.157,8985
0.0354,3958
-0.0584,6329
0.156,3027
0.228,1054
-0.0621,6420
-0.0123,5665
0.296,149
0.108,2698
0.0516,3649
-0.000802,5029
-0.218,9272
0.041,2002
-0.0367,6591
-0.0494,6171
0.123,1924
-0.0475,6842
-0.0817,7461
0.00449,4755
0.0506,3432
-0.182,8848
0.249,1241
0.153,1901
0.355,77
0.00584,4817
0.0446,3327
-0.156,8834
0.257,1180
0.0563,3131
-0.065,6010
0.0198,4286
-0.00318,5308
-0.143,7429
0.534,357
0.413,2163
-0.0425,5704
0.0539,3174
-0.0446,6516
-0.162,8274
-0.152,8164
0.0438,3462
-0.0836,6522
0.117,1266
0.0167,4442
0.0836,3531
-0.231,9046
0.0537,2627
-0.149,7444
-0.162,8748
-0.00677,5403
0.415,1232
-0.0198,5738
-0.332,6026
-0.0581,5642
0.00951,4758
-0.448,6147
-0.0426,6071
0.746,265
0.0928,1628
0.0388,4092
-0.013,5592
-0.132,6358
0.0553,4021
0.817,1260
0.13,3261
0.204,1779
0.261,808
-0.0714,6684
0.0491,3979
0.314,1888
-0.00084,5180
0.0683,1850
-0.0286,5637
-0.277,9023
-0.3,7059
0.304,1778
0.0745,2643
0.253,571
0.0141,4498
-0.164,8067
0.128,1913
-0.247,7623
-0.248,7811
-0.0209,6149
0.311,98
-0.114,7474
-0.0473,7411
-0.318,7755
0.135,1754
0.0326,3249
0.104,2173
-0.458,8188
-0.231,9658
0.0958,3730
-0.153,7675
0.161,1015
-0.057,8118
0.027,4127
0.00745,4809
0.537,1489
0.0184,4510
0.0536,3432
-0.1,9430
-0.261,9225
0.18,1427
-0.0945,7734
-0.0242,5895
-0.222,10289
0.0238,4065
-0.109,7468
0.0206,4493
0.208,1910
0.0856,2947
0.0262,3427
0.0672,1596
0.037,3769
0.366,2306
-0.0894,6834
-0.253,10264
0.0438,3291
0.0377,2883
0.0249,4420
0.125,2556
0.289,198
-0.212,9059
0.218,1527
-0.00463,5332
0.139,2532
0.0983,2474
-0.207,9309
-0.19,8748
-0.121,8704
0.134,1629
-0.155,9464
0.152,115
0.243,1082
0.0372,4140
0.0324,3532
-0.0248,5442
0.0292,4607
0.415,686
-0.0707,5716
0.0434,4140
0.212,504
0.156,2095
0.238,611
-0.16,8128
-0.00795,5245
0.783,1010
-0.0368,6319
-0.198,8397
0.236,1030
-0.039,5541
0.0169,4830
0.0551,3193
0.0268,4269
0.0155,4728
-0.027,6342
0.0629,3208
-0.0737,6683
-0.16,8595
-0.000877,4898
-0.11,9032
-0.278,10210
-0.0203,6017
-0.302,9263
0.00323,4973
0.0931,1439
0.00932,4676
-0.0353,6438
-0.00681,5211
0.438,419
0.209,774
0.281,37
-0.0658,7239
-0.151,9824
-0.178,9533
0.215,1253
-0.27,8860
-0.143,9499
0.0283,3560
0.572,747
0.795,132
0.146,892
-0.122,8747
-0.281,10410
0.186,1841
-0.139,8502
0.0805,1162
0.105,2242
-0.00852,5682
-0.0597,7845
-0.0315,7202
-0.0109,6012
0.272,33
-0.0696,8214
-0.00855,5553
0.213,1137
-0.078,7324
-0.057,7190
0.0203,4481
0.324,125
0.042,3917
0.0502,3496
-0.113,9984
0.596,483
-0.00877,5251
0.0685,2380
-0.0335,5833
0.174,2824
0.12,2530
-0.0881,7362
0.0875,2373
0.149,1032
0.556,2013
-0.258,10415
0.142,2535
0.073,2666
0.105,1646
-0.0374,5325
0.0411,3706
-0.203,9788
0.199,1209
0.000475,4915
-0.194,9827
-0.133,8292
-0.0759,6928
-0.125,8494
-0.0318,6943
-0.00289,5373
-0.0834,6001
0.0579,4005
-0.331,8327
0.17,917
-0.000249,4853
-0.108,8024
0.0624,2810
0.286,1531
0.196,2687
0.115,1640
-0.108,8441
0.0848,1546
-0.119,6868
0.0713,2794
0.0668,3598
-0.0574,7652
0.0297,3379
-0.106,6855
0.104,2041
-0.168,9157
-0.157,9599
0.0256,3809
0.052,3763
-0.0335,5467
0.0315,3884
0.0183,4544
-0.0999,8594
0.0298,3823
0.0465,3945
0.0515,3750
0.041,4104
0.0724,3833
-0.171,6643
0.0425,3131
0.00725,4735
-0.183,9730
0.175,1738
-0.113,7238
0.0616,3822
0.0428,3366
-0.0102,5412
-0.0589,6991
-0.287,9715
-0.0578,7724
-0.036,6249
0.0153,4843
-0.052,6490
-0.205,9748
-0.112,8333
0.0299,4590
0.0548,4052
-0.115,9111
-0.0358,7546
0.0365,3869
-0.249,9172
-0.0786,7221
0.255,2992
-0.106,8974
-0.14,9232
0.00566,4802
0.0489,4051
-0.08,6177
0.218,1986
0.00792,4544
0.181,852
0.00805,5062
0.282,454
0.0451,3583
0.133,414
0.0148,4490
-0.0679,7884
-0.113,7042
-0.107,7409
-0.124,6952
-0.201,7644
-0.172,10116
-0.0555,7464
-0.118,7269
-0.145,9179
0.404,398
-0.184,8753
0.0224,4012
0.0676,2814
0.239,684
0.00967,4774
0.4,133
-0.108,9006
0.442,47
0.189,997
-0.00899,4898
-0.236,6897
-0.0294,5512
0.0707,1468
-0.0348,6265
-0.148,8945
0.321,457
0.635,93
-0.0492,6725
0.114,1781
0.062,3270
-0.182,7903
-0.28,9934
0.115,2565
-0.0698,7714
-0.0457,7507
0.167,619
-0.175,8680
0.102,1936
-0.109,8728
0.584,1070
-0.0188,6108
0.383,30
0.204,772
-0.0188,5756
0.0443,3870
0.0796,3767
0.331,1134
-0.161,9767
0.229,2256
0.216,356
-0.0577,5579
-0.402,10428
0.00356,5008
0.187,1424
0.203,449
-0.228,9353
0.423,696
1.52,116
-0.00028,4830
-0.0618,7784
-0.0334,5887
0.353,1053
-0.249,7517
-0.153,9243
-0.0504,7621
0.201,142
-0.105,8324
0.167,1763
-0.662,7884
-0.0591,7318
-0.121,8508
0.142,2008
-0.0726,7596
0.158,2000
-0.106,8108
0.0132,4785
-0.285,10144
0.393,60
-0.188,8197
0.104,1079
0.0762,2468
-0.198,9682
0.237,557
0.0601,3354
-0.0171,5483
-0.1,7633
-0.0937,6431
0.0129,4705
0.131,1132
0.33,2006
-0.0786,7231
-0.0432,7019
-0.0658,6621
0.207,611
0.0638,1491
0.0798,1512
0.36,995
-0.336,10298
0.262,935
0.00744,4567
-0.193,9603
-0.133,8152
0.282,442
-0.628,10063
-0.0592,4590
-0.00766,4908
0.166,1441
-0.074,6459
-0.433,9543
-0.0509,6386
0.358,315
0.225,126
-0.00354,5576
0.226,1329
-0.0149,5784
0.0424,4433
-0.0384,6580
0.156,1005
0.157,642
0.235,840
0.0806,3295
-0.0861,7198
-0.0937,7728
0.0899,1269
0.0554,2998
-0.0209,5136
-0.0456,5897
-0.0305,5868
-0.104,5915
-0.134,7538
-0.0334,6655
0.162,1786
0.166,1740
0.212,2795
0.148,1777
0.0756,2044
-0.0425,7338
0.0591,2588
0.0524,2881
0.0573,3062
0.153,1445
0.0213,4292
0.167,982
0.227,820
-0.174,7367
-0.287,8053
-0.105,8156
-0.0637,7052
-0.0541,6733
-0.261,9845
0.0969,3134
-0.0297,6501
-0.247,8934
-0.0443,6881
0.0374,3626
0.167,1904
0.0166,4231
0.103,3323
0.328,1332
-0.038,7147
0.0748,1534
-0.167,9473
0.0146,4726
-0.0986,7298
-0.172,8766
0.0815,1090
0.104,1400
-0.12,8298
0.214,1275
0.257,2518
0.112,2642
0.0361,3507
-0.0687,8350
1.91,454
-0.494,9930
-0.17,9179
-0.0296,4782
0.209,758
-0.0514,7807
0.122,3667
0.0565,3214
-0.404,10161
0.0931,2875
-0.0482,7499
0.0955,2421
0.0946,2899
-0.0169,6196
-0.327,9073
0.0273,4277
0.32,484
-0.0146,5931
-0.0865,7058
-0.139,7857
-0.0683,6974
-0.329,9199
0.112,2005
-0.104,8842
-0.181,9228
0.125,2528
-0.162,8865
-0.0134,4945
-0.0474,6820
0.0382,3658
-0.675,9710
1.46,853
0.0755,2788
0.111,3000
0.364,689
-0.117,7030
0.574,370
0.0998,1892
-0.105,8527
-0.247,8792
0.256,1298
-0.114,5679
0.365,1444
-0.0828,9066
0.0236,3999
0.286,607
0.142,1363
0.109,1611
-0.0219,5782
0.113,662
0.0357,3859
-0.212,9213
-0.48,9956
0.353,1057
-0.0453,6396
-0.11,8723
0.0427,2947
0.0739,3865
0.233,685
0.178,1480
-0.197,9119
0.145,1716
0.0681,3905
0.753,678
0.0276,4340
-0.233,10129
-0.0313,5611
0.127,1055
0.0632,2333
-0.455,6519
0.0767,3828
0.576,238
-0.0562,8632
0.0875,1117
-0.0538,8139
1.72,1024
-0.388,7975
-0.0427,5516
0.223,1416
0.0532,3760
-0.525,8039
0.319,2131
1.21,1198
0.7,718
0.092,3087
0.0568,3469
-0.101,6514
0.0487,2930
0.0341,3111
0.000953,3849
-0.451,9502
0.151,3481
0.00135,4273
-0.106,6855
0.00224,5201
-0.12,7472
-0.138,8219
-0.276,9918
0.0641,2889
0.0184,4313
-0.0744,6800
-0.0484,6568
-0.0801,6845
0.0434,2395
0.0806,1242
0.17,1246
0.054,3669
-0.121,9149
0.0705,2669
0.094,2944
-0.127,9649
-0.13,10115
-0.329,5371
-0.301,8120
0.0328,4294
0.111,3229
0.271,422
0.108,2671
-0.985,8876
0.328,671
-0.309,10285
-0.0367,5689
0.0692,1707
-0.076,6253
-0.254,5715
-0.302,9073
0.031,3102
-0.000808,5372
-0.0319,5871
0.118,2440
-0.0626,6181
-0.0336,6196
-0.0169,5575
0.22,1155
-0.215,9675
0.0504,4146
-0.0423,6382
0.0226,4288
-0.145,8574
0.0204,3777
-0.0428,5817
0.165,1873
0.24,1987
-0.162,10199
0.0968,1554
-0.0559,6411
0.14,1513
-0.0933,8133
-0.147,7443
-0.207,9068
0.0264,4260
0.00448,4773
-0.139,7543
0.14,2584
-0.0234,5833
0.277,95
0.0263,3683
-0.00669,5288
0.355,2140
-0.188,7324
-0.039,6512
0.0297,4653
0.0847,1449
0.131,2752
0.238,1616
-0.136,7955
-0.00912,5007
-0.0322,5657
-0.0229,5882
0.0937,3791
-0.0924,6652
-0.329,10150
0.0189,4584
-0.034,7329
0.148,399
-0.0231,5648
0.219,3049
-0.0448,6253
-0.0672,6279
-0.071,8709
-0.0537,6857
-0.0127,5854
-0.0412,6697
-0.257,7579
-0.102,7736
-0.0732,7449
0.0844,3077
0.0321,3321
0.0317,3788
-0.0866,8359
0.0923,3075
-0.128,7815
0.0688,2562
0.0105,4777
0.044,3434
0.0185,4579
0.0365,4054
0.288,214
-0.13,9905
0.0616,2998
0.0679,3391
-0.164,8504
-0.125,7856
-0.0465,6727
-0.0625,6870
-0.0435,7409
-0.0257,5928
0.0489,3730
-0.0663,8216
-0.097,7799
-0.0318,6611
0.212,1810
-0.0558,6493
-0.0754,8822
0.252,2315
0.102,1280
0.124,2016
0.0205,4403
-0.216,7809
-0.0151,4993
-0.0335,5713
-0.082,7995
0.0571,2930
0.00358,4866
-0.153,9439
0.11,2191
0.0089,4692
-0.0766,7736
-0.278,10415
0.000508,4669
-0.19,10132
-0.000532,5001
-0.0638,7339
-0.136,8220
0.0401,3206
-0.0689,7472
-0.124,8403
-0.0446,7042
0.172,2432
-0.0284,6007
-0.0462,6937
-0.334,9961
-0.205,8271
-0.398,9329
-0.245,10379
0.258,1255
-0.222,9928
0.366,273
0.0395,4143
0.0585,3801
0.0617,2913
0.00456,4881
-0.0666,7607
0.0674,3286
-0.101,8625
-0.101,8885
-0.194,10174
-0.0715,7214
-0.123,8231
1.75,861
0.203,633
0.189,1050
0.0491,3314
0.269,453
0.0975,2901
-0.0163,5329
-0.0289,6229
0.141,1883
-0.0313,5758
0.0681,1537
0.0249,3071
0.132,2029
-0.149,8572
0.191,1146
-0.123,7073
0.167,838
-0.0891,7371
-0.193,8682
0.138,2614
0.0181,4399
0.187,1261
-0.0613,7188
-0.187,9700
0.0702,3537
0.435,200
-0.42,8404
0.0401,4111
0.12,2830
-0.121,9802
0.113,2982
-0.7,9402
-0.133,8469
-0.22,10104
0.0348,2867
-0.0467,8282
0.00886,4527
0.0836,1777
0.194,1030
-0.0855,8383
-0.0222,6408
0.157,1118
0.0713,3075
-0.124,6760
0.106,1270
-0.086,6941
-0.0321,6437
-0.164,10402
0.0492,3795
0.366,114
-0.213,8821
-0.0878,8707
0.157,2292
0.0305,4104
0.184,1343
-0.0961,7893
0.432,1291
0.142,2453
0.203,430
0.106,2043
-0.072,7051
0.0276,4379
0.131,2760
-0.0818,7069
0.0438,3293
-0.0976,9144
-0.215,8717
0.253,815
0.213,682
-0.0596,7207
0.0373,2538
-0.00425,5276
-0.178,10142
0.0252,4321
-0.0463,6177
-0.00718,4989
-0.0112,5494
0.0326,3977
-0.166,9377
0.0386,3800
0.0313,4641
-0.23,7277
0.0552,2999
-0.0062,5252
0.111,1822
-0.00404,5152
-0.0654,6421
-0.0067,5119
0.0429,3601
-0.0578,8915
0.211,1832
0.00921,4732
-0.154,7308
-0.0024,5086
-0.114,8707
0.245,249
0.403,137
-0.338,10457
-0.174,8200
0.156,3098
0.186,788
0.14,1242
-0.0317,5401
0.0197,4405
0.0597,3637
-0.0646,7109
-0.0505,7840
-0.0508,7549
-0.00483,5268
0.123,1105
-0.212,9764
0.257,441
0.0385,3547
-0.0486,6555
-0.0113,5686
0.0961,1866
-0.164,8124
0.00843,4695
0.0564,3259
-0.0694,6633
0.112,1676
0.654,439
0.218,1432
0.064,1503
0.126,1048
-0.0102,5539
0.173,1333
0.919,360
0.123,2136
0.0207,3953
0.0711,2179
-0.163,8833
0.0139,4729
-0.0829,8526
0.139,3151
0.00938,4416
-0.351,10328
-0.289,10396
-0.168,8381
0.123,2871
0.273,2299
0.0634,1700
0.124,1196
-0.0353,5852
0.238,710
0.1,3083
-0.0543,7480
-0.00126,5128
0.191,360
0.0876,3347
0.318,312
0.259,1195
0.0402,4155
0.118,2326
0.0977,2748
-0.274,8160
0.133,1486
-0.0246,6038
0.206,2571
-0.0176,5467
0.0976,2776
0.0105,4377
0.0132,4581
-0.153,8322
0.121,2985
-0.0495,6480
-0.204,8802
-0.0672,7100
0.00183,4777
0.256,804
-0.426,10401
-0.1,7332
0.0694,3196
0.513,312
-0.0419,6100
-0.232,9191
-0.2,8567
-0.0705,7799
-0.0782,8618
-0.194,10261
0.0411,3764
-0.0865,8816
0.0574,3528
0.335,909
0.126,1185
-0.0886,6058
0.116,2890
-0.275,10092
0.261,1047
0.0165,4150
-0.0202,6215
-0.167,9115
0.0443,3564
0.0263,4579
-0.0294,5464
0.324,370
-0.113,9877
0.187,681
0.48,218
0.026,4438
0.162,1987
-0.0753,8073
0.0544,2080
0.0109,4645
0.00665,4808
-0.285,10055
-0.0141,5236
0.0372,4123
-0.0792,7810
0.146,3215
0.836,367
-0.00479,5006
-0.0686,7594
-0.0525,8121
-0.0795,6370
-0.102,6901
-0.198,8490
1.09,410
-0.109,10184
0.0735,2752
0.163,2945
0.129,1461
0.167,2656
0.00555,4730
0.00217,5111
0.153,546
0.0049,4826
0.0282,4177
0.114,2947
0.0544,3830
-0.092,7685
-0.169,9206
-0.116,4602
-0.0598,7660
-0.0897,8281
-0.0136,5260
0.00702,4716
0.00889,4528
-0.0844,6896
-0.327,9697
-0.458,9435
-0.0162,5757
0.00874,4566
0.000877,4983
-0.241,9473
-0.116,8777
0.161,1233
0.0109,4771
-0.0364,6389
0.0152,4508
-1.02,9871
0.166,626
0.117,1329
0.148,2996
-0.0851,8641
-0.0379,7978
0.381,2626
-0.0672,7550
0.468,389
-0.0313,5762
-0.00462,5269
-0.0307,6095
-0.0755,6983
-0.215,9313
0.0928,1148
0.0853,943
-0.0976,7548
-0.32,9292
-0.479,10177
-0.124,8093
0.447,622
0.107,2655
-0.141,8655
0.12,873
0.185,344
0.127,1948
0.00188,5030
-0.0358,8186
0.224,202
0.249,1663
-0.0478,5844
-1.19,9732
0.167,1663
0.137,2051
0.47,861
-0.154,8834
-0.128,7617
0.0398,4273
-0.165,7493
-0.113,8522
0.867,245
0.111,1700
0.125,2886
-0.253,9805
-0.275,8734
-0.0422,6378
0.0228,4012
-0.0912,8274
-0.0593,6772
-0.0615,7507
-0.194,9338
-0.174,9627
-0.00855,5075
-0.145,9323
-0.0634,7114
0.328,248
0.127,2730
0.399,2803
-0.11,7423
-0.0987,7856
-0.0467,6387
-0.0203,5349
-0.133,7231
-0.0772,8053
0.0335,3719
0.0223,1578
0.0331,4202
-0.23,8409
-0.118,7089
-0.128,8569
0.0387,3840
-0.103,8688
0.0159,4090
0.0615,2635
-0.211,8779
-0.0314,5736
-0.0108,5638
-0.301,10317
-0.0125,5467
-0.143,9226
-0.141,8545
-0.093,7340
0.00203,4969
0.0113,4532
0.0596,3305
0.173,232
0.0977,2056
0.0368,4229
0.153,1621
0.0156,4617
-0.208,8541
-0.15,8661
0.0953,1753
-0.0519,6486
-0.0923,7990
-0.129,8217
0.0928,2828
0.0642,3472
0.0371,3957
-0.0899,8178
-0.271,8742
-0.559,9023
0.077,3255
-0.283,10444
-0.134,9464
0.0478,2567
0.186,2944
-0.14,7373
0.526,590
-0.0048,4974
0.0958,1521
0.14,1206
0.0561,2150
0.0776,2642
0.0416,3827
0.291,699
-0.0481,7146
-0.0331,7566
0.405,448
0.0381,4153
-0.0538,6654
-0.0993,6508
0.155,1051
-0.0556,6888
0.145,1836
0.265,952
-0.143,6926
0.157,520
0.125,1318
-0.00541,5492
-0.0867,8178
-0.28,9688
0.0337,4302
0.0485,3515
-0.0437,6687
-0.007,5332
-0.0128,5446
0.315,560
-0.18,9688
-0.00203,5085
0.0321,3911
0.107,1957
-0.141,8604
-0.233,7962
-0.0906,8264
0.206,1317
-0.119,8331
-0.185,10356
0.0869,1317
-0.0625,7270
0.29,361
-0.00507,5404
-0.0938,6465
-0.0198,5962
0.165,1351
-0.0522,6786
0.0965,2408
0.146,1170
0.375,1044
0.107,1590
-0.021,4991
0.109,1904
0.0153,4640
-0.0713,8346
-0.0773,8485
-0.184,9122
-0.209,10110
-0.0651,6949
-0.0169,6413
-0.404,10432
-0.00843,5884
0.5,83
0.022,4455
-0.13,8682
0.0657,4170
0.0445,3934
0.0494,3476
-0.0544,6453
-0.101,7717
1.56,135
0.00696,4906
0.0849,1414
-0.0305,5814
0.311,414
-0.0935,8770
-0.0146,5589
0.0548,3467
-0.259,9395
-0.0331,6382
-0.138,9142
0.0941,3651
-0.389,9865
0.0341,3756
0.00754,4954
-0.0563,6867
0.311,223
-0.14,9234
-0.187,8574
0.115,2741
0.0743,2562
-0.0621,8022
-0.354,9916
0.0652,3517
0.085,2789
0.0711,2639
-0.0804,7914
-0.0443,6115
-0.184,9982
-0.0399,6043
-0.0853,7069
0.0335,4241
0.00345,5026
-0.00867,5194
0.237,1071
0.248,127
-0.127,7149
-0.0767,6484
0.0555,3545
-0.192,9992
-0.297,7374
-0.346,10098
-0.335,10040
-0.0796,7880
0.429,151
0.228,375
0.0755,3231
0.0364,3782
0.229,666
-0.213,9053
-0.0997,9610
-0.0839,8616
0.14,1599
0.0648,3945
0.27,1600
0.247,361
-0.0151,5925
-0.057,6826
0.0284,4101
0.0105,4939
0.0801,2494
0.1,2574
0.192,1138
0.0994,1260
0.306,1381
0.268,1132
0.156,941
-0.219,8218
0.0744,2208
-0.0625,7459
0.0385,3993
0.168,1131
0.157,729
0.0187,4502
-0.0884,8188
-0.112,8438
-0.036,6546
-0.124,7769
-0.347,9478
-0.139,10032
0.188,2290
-0.23,10390
-0.0309,5936
-0.0274,5793
-0.0208,5274
-0.145,7069
-0.0761,7077
0.189,366
-0.0609,5337
0.0438,3844
0.103,1507
-0.00195,5035
0.0437,2495
-0.0655,8659
0.00654,4869
-0.381,9990
0.124,2183
0.302,600
-0.057,7516
-0.0139,5739
-0.101,8093
0.0166,4464
0.338,1332
0.214,1092
0.13,2098
0.0624,2350
-0.214,9387
0.163,850
0.0141,4527
-0.0719,6420
-0.143,10230
0.0856,2348
-0.0771,8071
-0.204,9633
0.0242,3909
-0.0392,6652
-0.00789,5425
-0.17,9608
0.096,2478
-0.522,10281
0.0566,4312
0.0865,2457
-0.0123,5723
0.0893,2999
-0.102,10016
0.127,2421
-0.0107,5332
0.0747,2470
0.0527,3691
0.0239,4229
-0.0965,5917
0.126,2816
0.0284,4342
0.295,1398
-0.103,8333
-0.133,7949
-0.0556,5936
0.00419,5138
0.0265,4182
-0.202,8131
-0.0403,7629
-0.012,6029
0.0644,3459
-0.319,8915
-0.0123,5472
-0.0103,5625
-0.174,10002
-0.0504,7029
0.0523,3386
-0.0609,6378
0.991,178
0.0923,3378
-0.209,9388
0.0575,3309
-0.0576,7350
0.0506,3635
0.0203,4456
0.00775,5035
-0.0883,9353
-0.00458,5541
-0.237,8682
-0.117,8412
0.366,400
0.0789,2496
-0.0112,5590
0.0557,3219
-0.0654,7027
-0.179,8729
-0.392,9282
0.223,2262
-0.0956,7854
-0.000442,5039
0.415,34
-0.00615,5376
-0.182,9473
0.104,2920
0.00382,4747
-0.0503,6867
-0.121,7316
0.294,1099
0.197,1236
0.0206,4466
-0.0158,5696
-0.0991,8869
-0.0719,7746
0.0976,2800
0.134,2103
-0.0651,6358
0.0213,4130
0.109,791
-0.0716,6373
-0.0773,7082
-0.241,8511
-0.132,9052
0.0555,2815
0.0747,2258
-0.365,10426
-0.101,8121
0.579,4
-0.318,8723
-0.15,8520
0.00572,4854
0.0778,2334
-0.0559,6622
0.229,190
0.0483,1419
-0.0624,8466
-0.00338,5178
-0.0456,7108
-0.239,8830
-0.153,8812
0.0623,2445
-0.0918,6832
-0.0167,5757
0.0279,4259
0.0264,4024
-0.237,9374
0.295,1437
0.195,690
-0.00203,5477
-0.232,10124
-0.0964,7401
-0.217,8328
-0.0352,6263
0.192,1501
-0.0187,6052
-0.112,7478
0.0858,3101
-0.186,8067
-0.111,6730
-0.000387,5274
-0.161,9924
0.00152,5021
0.103,3254
0.0766,2860
0.00224,4912
-0.177,7534
0.0991,1655
0.0611,3161
-3.09e-05,5078
-0.0811,7749
-0.305,10099
-0.00466,5202
0.162,905
0.0231,4516
0.0523,3813
0.0565,3531
0.284,732
-0.0576,7058
-0.244,9736
0.174,2775
0.0512,3781
-0.051,6832
-0.0611,6647
-0.139,10266
0.0712,2065
-0.179,9000
0.252,1864
-0.255,9837
-0.131,8234
-0.0278,7180
0.234,163
-0.107,6630
-0.15,8695
-0.171,8577
0.199,1048
0.146,1929
-0.0204,6322
-0.167,9685
0.497,847
-0.139,7562
-0.147,8433
-0.202,9373
-0.00225,5226
-0.024,5814
-0.0999,6407
0.171,2040
-0.0574,7163
-0.0734,7022
0.113,1511
0.164,882
-0.0939,7477
0.148,2153
0.0727,2770
-0.198,10211
-0.0613,7906
-0.114,7687
0.0131,4720
-0.0157,5271
0.119,2635
0.0188,4108
0.132,900
0.0035,5086
0.298,840
0.0918,3349
-0.135,7584
-0.138,9521
0.00138,4976
0.0204,4400
-0.0822,8190
-0.313,8883
0.0452,3195
-0.0359,6777
0.0377,3921
-0.103,7558
-0.00423,5335
0.0706,3391
-0.207,9447
0.0899,2056
0.0396,2542
0.0542,3818
0.0827,2563
-0.1,7876
0.0401,4317
-0.0177,6015
0.154,543
-0.177,9990
-0.201,9720
-0.188,8156
0.094,3688
0.133,2468
-0.075,8464
0.116,3104
-0.0951,8419
-0.381,10382
-0.357,9842
0.0609,1727
-0.0736,7925
-0.0775,6259
0.246,423
0.185,1001
0.0141,4512
-0.0444,7863
0.074,2206
0.0982,2853
-0.0645,6547
0.261,1249
0.0728,3224
-0.0174,7053
0.0818,1672
0.186,1437
-0.0697,7521
-0.548,9492
-0.199,7612
0.403,186
-0.316,10441
0.13,1602
-0.213,9304
-0.0164,5938
0.18,2696
-0.00618,5413
-0.16,10122
0.0557,3498
0.411,447
-0.053,6034
-0.0316,5513
0.0893,2415
-0.525,8436
-0.137,8269
0.229,767
-0.0391,6322
-0.0459,6532
0.00677,4842
0.232,609
0.367,48
0.0164,4576
0.0209,4611
0.105,2779
0.147,1947
0.121,1404
-0.0937,8982
-0.36,9409
-0.496,10173
0.172,2094
2.29e-05,5085
0.0869,748
-0.00544,5253
-0.0147,5109
0.195,1804
0.0915,2113
0.033,4162
0.379,607
0.233,528
0.144,1739
-0.0179,6133
-0.106,9334
0.0223,4178
-0.0496,7702
0.0356,4070
-0.208,8133
-0.231,8397
0.415,194
0.0628,3916
0.312,1525
0.4,352
0.626,172
-0.112,9516
0.0264,4054
-0.0304,5433
-0.0177,5488
0.203,1824
0.212,1014
-0.0094,5361
-0.0984,7500
-0.00218,5244
-0.0439,7078
-0.0441,6833
-0.0969,8484
-0.0446,7098
-0.0258,6305
-0.215,7708
0.657,701
-0.0965,6978
0.0606,3782
0.254,117
0.0587,3115
0.269,1586
-0.12,6895
-0.357,9998
0.191,1301
0.0417,2521
-0.113,8716
-0.163,7978
-0.0349,6818
-0.407,7765
0.021,4488
-0.0132,5609
-0.159,9000
0.0893,3005
-0.113,9622
-0.0231,5275
0.207,2626
-0.0401,7508
-0.0818,7857
-0.0798,6921
0.163,2507
0.0635,2879
0.563,1040
0.042,3063
-0.0606,7354
-0.0182,5418
-0.0626,6728
0.0956,2662
-0.238,7916
0.0473,3209
0.0562,3087
-0.177,8528
-0.0111,5647
0.144,1962
-0.086,7072
-0.0466,7185
-0.0676,7671
0.14,1433
-0.281,10094
0.0442,4153
0.318,1588
-0.125,8028
-0.125,7525
-0.0756,6857
-0.436,9746
-0.0786,6906
-0.216,9340
0.0546,2169
-0.288,6924
-0.267,8668
-0.00299,5346
-0.0621,6781
0.0223,4002
0.21,80
-0.0269,5689
-0.0189,5371
-0.00134,5145
-0.156,8276
-0.194,10381
-0.0043,5253
-0.00026,5248
-0.296,6424
-0.255,10048
0.393,1194
0.0737,2741
-0.0305,6171
0.0889,3041
0.206,1309
0.179,1410
0.0756,3476
0.0953,3101
0.0427,2981
-0.134,7908
0.161,1596
-0.105,7206
-0.158,7701
-0.142,8618
-0.00646,5595
0.0874,3211
0.00104,5076
0.0215,4454
-0.0922,7322
0.0997,1905
-0.0153,5351
-0.17,9340
0.484,96
0.159,2136
0.17,508
0.0437,3240
0.15,841
-0.0831,7576
0.0123,4318
0.0211,4400
-0.105,9062
0.0848,2227
-0.165,9609
-0.139,8284
0.366,68
0.431,956
0.13,2523
0.154,999
0.0128,4598
-0.24,10324
-0.0628,7137
-0.409,10182
-0.0872,7442
-0.0845,9221
-0.0205,5948
-0.0897,8373
-0.116,8673
0.141,895
-0.197,8015
0.0882,1249
0.104,2419
0.168,3174
0.069,3670
0.261,1607
0.155,2904
0.0699,2186
0.38,193
-0.0114,5390
-0.207,8419
-0.317,9810
0.268,524
0.0856,3083
-0.0991,9151
0.167,1154
-0.00558,5220
-0.177,6516
-0.00078,5235
-0.0993,9516
0.118,1350
-0.222,10073
0.189,1840
0.406,384
0.237,2546
-0.00362,5359
0.403,117
0.257,1097
0.697,33
0.0483,3272
-0.165,9840
-0.0685,7453
0.0264,4017
-0.201,10034
0.00438,4769
0.474,424
0.279,350
0.372,603
-0.235,9079
1.48,296
0.0847,3581
-0.00747,5583
0.241,726
0.178,1591
-0.235,8310
-0.0131,6074
0.289,386
0.0259,4296
0.0615,1144
-0.162,8557
-0.104,8673
-0.0271,5456
0.127,1980
-0.0581,8432
0.111,1820
-0.193,9617
0.475,751
-0.201,7972
0.0529,3406
-0.122,8871
-0.0028,5370
-0.52,7059
0.0259,4225
-0.0919,6474
0.0289,4361
-0.0581,7669
-0.0457,7377
-0.407,6852
-0.0905,6292
0.115,2382
0.0256,4350
0.0258,3574
0.00557,4808
-0.0481,6748
-0.0525,6995
-0.111,8387
0.00358,4839
0.0137,4762
0.0346,3657
-0.436,10428
0.0556,3144
0.102,2887
0.247,1724
-0.0494,6510
0.0757,1129
-0.182,9675
0.0319,3183
0.303,1005
-0.288,10121
0.128,529
0.0212,4029
-0.0488,6601
0.16,2056
0.0545,4008
-0.0379,6240
0.227,706
0.0314,3609
-0.12,8649
-0.115,8365
-0.134,8664
-0.128,8972
0.214,311
-0.179,9811
0.254,598
-0.168,9504
-0.0587,7446
-0.269,9349
0.00473,4663
0.0727,2843
0.195,837
-0.0179,5690
0.0187,4587
-0.0266,5308
-0.0517,7223
0.117,1718
-0.16,8811
-0.114,8753
0.0159,4349
-0.00547,5349
0.0689,2726
0.187,417
-0.226,8015
-0.178,9716
0.0816,3004
-0.417,10260
0.032,3872
-0.00984,5663
-0.0488,6723
-0.185,9659
-0.068,5797
-0.141,9839
-0.167,9486
-0.17,9650
-0.163,8695
-0.0641,6254
-0.0786,6692
-0.0919,7496
-0.0361,6449
-0.19,9126
0.488,69
0.305,779
-0.0268,5783
-0.11,8498
-0.0883,8547
0.204,1463
-0.182,8583
0.226,2130
-0.0951,6439
0.234,805
-0.126,7910
0.105,2853
-0.143,9368
0.166,1927
0.0223,4549
0.172,85
0.00434,5102
-0.183,8774
-0.0713,5982
-0.0855,6929
0.0969,2705
-0.114,9272
-0.0226,6131
0.154,2024
0.0371,4129
0.0258,4189
-0.0595,7059
-0.046,6045
-0.173,8810
-0.256,9774
-0.168,8261
0.132,1931
-0.0954,7853
-0.0718,6480
0.0459,3656
-0.00695,5088
0.232,1071
0.0814,3473
-0.13,8181
-0.162,9967
0.0584,3344
0.135,1191
-0.0256,5681
-0.0601,7959
0.0145,4305
-0.0444,7208
-0.0701,7759
-0.0171,5751
0.11,2134
-0.0818,9147
0.0659,3372
-0.0727,8424
0.0465,2743
0.0642,3444
-0.32,9724
0.188,2353
-0.3,10093
0.127,1856
-0.0122,6062
0.0543,3578
0.29,519
-0.0252,6062
-0.366,10120
-0.171,8213
0.169,318
-0.0831,7733
0.209,652
-0.172,8180
0.0803,2862
0.0415,2946
0.0659,3157
0.0406,3970
-0.101,7340
0.138,588
-0.0971,6758
0.0217,3894
-0.0259,6642
0.346,763
0.0241,4516
-0.114,6720
0.57,494
0.0135,4654
0.163,1213
-0.289,9699
0.0785,2807
-0.178,8860
0.0427,3965
-0.05,7642
0.0593,2665
-0.161,9500
-0.00634,5434
0.0189,4557
1.16,327
-0.108,7765
0.244,105
0.023,4226
0.034,4111
-0.286,9922
-0.0128,5745
0.0112,4777
0.0154,4631
-0.051,6606
-0.202,10066
-0.071,7061
0.013,4451
-0.0552,7624
-0.162,9635
-0.508,8434
0.233,2657
0.0646,3298
0.213,1870
0.0279,4362
0.0576,3076
-0.0341,5636
-0.146,8043
0.0972,2012
-0.111,8213
0.0205,4363
0.035,2883
-0.116,8126
0.144,2289
0.148,2362
-0.0765,6928
-0.0217,6239
0.0424,3285
0.125,3361
0.0516,4010
-0.147,8338
-0.0779,7655
-0.015,5813
-0.222,9249
-0.153,8579
0.177,1214
-0.0502,5287
0.178,926
0.197,2166
0.0274,3863
-0.127,9237
-0.187,8802
-0.0637,7270
-0.114,8451
-0.0721,8359
0.658,56
0.136,1367
-0.126,7738
0.000868,4985
-0.00211,4899
-0.00142,5074
-0.0291,6199
0.177,1848
-0.0502,6328
-0.0563,7474
0.0372,3870
-0.0276,6336
-0.0466,6490
-0.0677,8062
-0.0527,7004
0.00221,4952
0.151,565
-0.0287,6450
0.0354,3495
0.00157,5172
0.143,2584
0.0884,861
-0.265,10047
-0.17,9525
0.14,2112
-0.124,8206
0.216,1012
-0.173,10045
-0.0319,6233
-0.0335,6789
-0.0448,7530
-0.18,9132
0.12,2228
0.226,1801
-0.000989,4602
-0.0398,7392
0.0556,2188
-0.133,8677
-0.00814,4987
0.161,585
0.0555,3968
-0.0196,5615
-0.261,10145
-0.448,9288
-0.156,6984
0.134,2358
0.656,324
-0.0282,5853
0.0499,3439
0.0976,3975
-0.685,8660
-0.0707,5873
0.0923,3958
-0.0895,7015
-0.0576,6485
-0.162,8198
-0.193,8158
0.0904,1693
0.276,179
0.0231,4373
-0.261,10259
0.294,1991
0.0315,4186
-0.0689,8287
-0.0759,7281
-0.0197,5814
0.0561,3242
-0.38,10307
0.174,1064
-0.0169,6642
-0.107,8519
-0.122,7792
0.264,1623
-0.0892,8746
0.0611,1734
-0.0939,7552
-0.172,8177
0.188,1299
-0.269,9223
-0.136,6819
0.0414,1508
-0.0862,9843
-0.0275,5848
-0.125,8036
0.123,1730
0.0652,3589
0.116,2259
0.0515,2987
0.013,4620
0.335,176
0.0795,2206
0.232,790
0.0475,3038
-0.00403,5400
0.133,882
-0.0437,6561
0.0606,3804
0.323,461
0.223,1719
0.0908,2994
0.0668,2044
-0.188,9508
-0.0831,6272
0.0879,2303
-0.0611,7119
0.0739,2792
0.0127,4714
-0.18,10165
-0.0165,5186
-0.0187,5720
0.168,1834
0.0691,2915
-0.0477,8040
-0.00317,5356
-0.0576,7447
-0.398,10303
-0.104,6003
-0.0477,7257
0.056,3631
0.164,1344
0.294,144
-0.0859,7634
0.187,121
0.129,3244
0.0769,2722
0.128,1892
0.125,1866
0.274,2127
-0.166,8953
-0.0178,6010
-0.0363,6878
0.2,1400
-0.187,9221
-0.0853,7529
-0.0379,7099
-0.0241,6045
-0.0263,6398
-0.0793,8100
0.269,365
0.0125,4478
-0.105,6814
0.132,2082
0.0365,3313
0.417,119
0.05,3198
0.235,2266
-0.16,7433
-0.117,8868
0.0582,2625
-0.246,10186
0.0573,2889
0.0882,2832
-0.137,8410
-0.0938,6566
-0.0406,7175
-0.0146,5588
0.226,1062
0.163,1384
-0.0953,6995
-0.0656,7198
-0.16,9295
0.0633,3441
-0.0306,6097
0.109,3179
-0.437,10419
0.0618,1569
0.172,2714
-0.0931,7435
-0.108,8506
0.121,2614
0.529,569
0.0313,3239
-0.0931,9162
-0.22,9261
0.137,3202
-0.211,9114
-0.29,8409
-0.0283,6084
-0.0346,6382
0.0231,4264
0.0357,3712
-0.082,6284
-0.0417,6571
-0.0366,5763
0.0914,2570
0.0897,3025
0.00899,4879
-0.143,8613
-0.246,10440
-0.161,8885
-0.234,9560
-0.114,8350
-0.357,9849
-0.238,9776
-0.0348,5871
0.225,2054
-0.014,6148
0.00786,4848
-0.143,10057
0.0236,4717
-0.00109,4937
0.137,1109
0.166,228
-0.0377,5167
0.106,1416
-0.057,6563
-0.117,8019
0.102,3193
0.0732,269
0.0262,4078
-0.0876,6861
-0.116,6549
-0.223,8907
-0.023,6257
-0.032,7826
0.00849,4702
-0.0208,5511
0.0605,3266
0.138,1203
0.227,329
0.0958,2263
0.0282,4785
0.0587,3196
0.194,1381
0.158,1525
0.433,349
0.112,926
0.13,1755
-0.234,9689
0.0601,3002
-0.172,8688
0.042,4080
0.00807,4674
0.17,1125
-0.141,8838
-0.114,6337
-0.259,10356
-0.0263,6982
-0.0319,7348
0.0374,4375
-0.12,8200
0.0215,4357
-0.0177,5688
0.0189,4338
-0.0477,7544
0.0358,3782
-0.119,8117
-0.0347,5916
-0.186,9096
0.355,1175
0.0434,3086
0.00399,4746
-0.0982,6786
0.0461,4437
0.217,1009
-0.186,9707
-0.104,9644
0.151,1246
0.0407,3553
-0.172,8413
0.0122,4650
0.0903,1854
0.0214,4375
-0.224,6100
0.141,2000
0.116,1818
0.484,171
0.0605,2866
-0.0408,6982
-0.021,5374
0.0723,3626
0.186,1244
0.0167,4473
-0.0431,7153
0.0925,1528
0.269,1389
-0.0619,6242
0.169,1104
-0.876,9634
0.0216,3938
0.0133,4604
-0.642,9977
-0.19,9886
-0.018,5565
0.00599,4882
0.318,405
0.139,1400
0.0477,3036
0.0886,2372
0.0616,3531
-0.0521,8197
-0.0165,5532
-0.16,8564
-0.0599,6131
0.325,101
-0.441,10255
0.248,677
-0.175,10268
-0.133,9406
-0.249,9960
-0.119,9315
0.0753,3707
-0.139,6903
0.0676,3002
-0.154,7978
-0.183,9036
0.648,79
-0.0671,6648
-0.0177,6284
-0.0915,9644
-0.108,9514
-0.0247,5887
0.101,3289
-0.0836,8373
0.0947,3429
-0.0388,6511
-0.17,9455
0.0347,3666
0.4,498
-0.135,9642
0.153,1452
0.296,1063
0.163,1728
-0.0163,5746
-0.343,8673
-0.113,8272
1.41,592
0.0387,3576
0.0336,3302
0.123,2323
-0.274,10283
-0.0478,6098
0.0492,3312
0.0228,3656
0.578,1070
-0.013,5463
-0.0544,7007
-0.465,6496
0.845,131
0.112,1221
0.282,249
-0.0946,8078
-0.119,9006
0.0563,2659
0.147,1771
-0.0577,7030
0.0802,1317
-0.108,7888
0.224,1191
-0.732,9411
-0.0691,5988
0.072,1834
0.0878,1172
-0.618,10428
0.0566,4025
0.187,879
0.148,1850
0.0368,3590
-0.0363,6732
0.272,187
-0.102,7238
-0.283,7875
-0.294,9443
0.0789,1537
-0.00161,5354
0.105,3432
0.0384,3968
0.00793,4848
-0.184,9039
0.123,1062
-0.301,10413
0.144,1901
-0.0763,8034
0.0258,3891
-0.0565,6498
0.0426,3648
-0.152,8680
-0.114,7073
0.234,105
-0.0646,7556
0.0462,3677
-0.128,8485
0.405,402
0.272,359
0.0743,2362
-0.21,10449
0.0188,4486
0.12,1591
-0.189,9634
-0.184,9185
0.0097,4779
0.0557,3102
-0.227,9516
-0.0109,5432
-0.136,8084
0.519,59
0.0449,3258
-0.106,8417
0.04,4250
0.0162,4758
-0.082,7740
-0.467,10413
0.00784,4589
0.179,666
-0.169,5089
0.022,4456
0.158,2359
0.0414,3848
0.0539,2081
0.034,3584
0.225,1193
0.166,1495
0.0173,4595
0.145,2284
0.256,282
-0.0903,7414
0.361,456
0.285,416
0.0338,3611
-0.00828,5354
-0.136,8550
-0.039,7485
0.06,3309
0.0727,2903
0.046,3869
-0.00618,5408
0.222,1269
-0.068,8673
0.215,3236
0.67,192
0.218,2731
-0.0427,5689
-0.192,10325
0.0996,1477
-0.123,9915
0.101,2455
0.142,2192
-0.147,9505
-0.000486,5029
-0.0282,5503
-0.0676,6599
-0.201,8238
-0.0749,6407
-0.484,10467
0.397,282
-0.122,8844
-0.0501,6593
0.109,1665
-0.0257,6150
-0.0201,6077
-0.0589,7059
-0.00502,5206
-0.31,10085
-0.202,8590
-0.0399,6597
0.128,1714
0.00874,4923
-0.111,7612
-0.112,7690
0.0375,3976
0.21,2419
0.201,150
-0.16,8881
-0.101,7990
0.0854,3466
-0.172,9871
0.101,439
-0.219,8612
-0.0943,8331
-0.0171,5755
0.111,1809
0.237,928
-0.0164,6008
-0.0929,8139
-0.25,9900
-0.149,7715
-0.0955,7503
-0.276,8573
0.198,395
-0.0257,5551
-0.0261,5698
0.0193,4227
0.0408,3901
0.289,1075
-0.0326,6786
0.329,376
0.306,609
0.132,2750
-0.145,6793
-0.0907,6885
-0.0594,7115
0.165,2090
0.172,2170
-0.037,6264
0.145,2604
0.205,1537
0.392,168
-0.0548,7698
0.0463,3231
-0.0129,5383
-0.00941,5512
0.342,779
0.211,164
-0.0641,7830
0.363,202
0.317,514
0.0884,3844
-0.0321,5614
-0.209,10309
0.125,1353
-0.191,8413
-0.0286,5812
-0.0173,5494
0.0337,3165
-0.0131,5627
0.0318,4293
0.284,1454
0.0539,2963
-0.0553,6735
0.236,94
0.209,1181
-0.0703,7442
-0.203,10426
-0.168,8351
0.667,355
-0.383,9880
0.13,750
0.107,1636
-0.0471,6502
-0.023,5315
0.164,1914
-0.115,6371
-0.00515,5462
-0.00492,5424
-0.466,10266
-0.0835,6533
-0.0611,6843
-0.00996,5330
0.198,1297
-0.14,9687
-0.0378,6137
0.28,891
-0.0912,7585
-0.178,9395
0.114,3142
-0.152,9361
-0.0602,7798
0.0712,2371
0.161,1490
0.0251,4675
0.0267,3981
0.0582,3000
0.139,1560
0.487,76
0.0317,3857
-0.257,8488
0.0301,4060
-0.0471,6539
-0.0451,6126
0.0101,4717
-0.1,6695
0.0364,3805
0.0484,3320
-0.0172,5734
-0.724,9353
0.0603,3767
-0.048,6453
-0.21,8754
-0.293,9590
-0.155,9552
-0.169,8276
1.71,209
-0.0997,8527
0.00195,5005
-0.108,10039
0.0398,3824
0.0117,4290
0.327,578
-0.0126,4878
-0.0092,5245
-0.0234,5952
0.438,50
-0.226,7744
-0.161,7744
0.584,178
0.0627,2735
-0.0186,6233
0.0845,2864
-0.181,8912
-0.0879,6304
-0.325,10171
0.0114,4708
-0.0704,9293
-0.167,8432
-0.114,8132
0.00664,4910
-0.273,9097
0.145,1797
-0.0563,7530
0.184,1132
0.0508,3870
0.23,973
-0.635,8154
0.00669,4901
-0.014,6171
-0.0406,6584
-0.107,7976
0.12,2590
-0.0876,8724
-0.162,9428
0.075,2030
-0.0335,6403
0.111,2523
-0.112,7373
0.186,1348
-0.061,6665
-0.00555,5701
0.00446,4830
-0.0749,6536
-0.366,10445
0.0304,4524
-0.0413,7142
-0.036,6512
0.156,831
-0.0469,6708
-0.158,9106
-0.0225,6369
0.134,588
-0.168,9853
0.0134,4551
-0.126,8777
-0.0758,7764
0.484,657
-0.0476,6402
-0.0264,6755
0.0313,4188
-0.185,9660
-0.317,9826
-0.132,8063
0.0921,2609
-0.122,9181
-0.159,9469
0.534,127
0.0125,4490
-0.0127,5101
0.0862,3526
0.0118,4434
0.00994,4703
0.406,753
-0.0379,6888
0.0358,3980
-0.0575,6681
-0.071,6375
-0.141,8309
-0.159,9443
0.0373,3295
-0.119,8353
0.00432,4721
0.225,910
-0.0961,6877
0.224,2649
0.429,426
0.0405,3189
-0.0379,6840
-0.00561,5260
-0.325,9295
0.124,3274
0.0379,3637
0.0155,4219
0.216,750
0.22,497
1.39,276
0.0331,4296
0.0727,3500
0.0265,4228
0.0135,4506
-0.166,9563
-0.0323,6130
-0.19,8566
-0.115,7381
-0.0242,5412
0.0765,1611
-0.147,9816
0.0913,3434
-0.0337,5911
0.0537,3184
-0.1,8621
0.14,1726
0.242,292
-0.0138,5940
0.0498,3510
0.0271,3820
0.0358,3889
0.0898,2527
0.191,1171
-0.145,6810
-0.0896,7615
0.105,2442
-0.0892,7790
-0.0397,5777
0.00677,5025
-0.0444,6270
-0.128,6555
-0.00157,5192
0.0591,3452
0.161,1736
-0.0642,7686
0.16,1204
0.169,2115
0.0242,3572
0.331,70
-0.112,6195
-0.41,9590
-0.133,10219
-0.0754,7718
-0.186,9792
0.0316,3527
-0.0432,6764
0.00545,4708
-0.195,9967
-0.0191,5278
0.0337,4129
-0.014,6372
0.186,1783
0.0337,4146
0.0796,3451
-0.129,7824
0.229,449
0.0104,4733
0.078,3609
-0.257,10220
-0.29,9259
0.0514,4141
-0.295,10016
0.209,874
0.0493,3507
0.369,473
-0.094,5519
-0.317,7922
-0.108,8991
0.172,2150
1.49,928
-0.347,7477
0.108,3579
0.33,482
0.138,1948
0.0203,4014
0.0392,3412
-0.0522,6032
-0.0695,7582
0.109,2040
-0.0879,8925
-0.221,10256
-0.0539,7061
-0.093,8742
-0.0454,6865
0.534,238
-0.09,9698
0.0215,3688
-0.19,10150
0.527,249
0.0402,3733
0.0565,3793
-0.0481,6905
-0.0147,6002
0.00214,4733
0.0542,2605
-0.142,10124
-0.0252,5087
-0.0389,6827
0.123,1170
0.111,1370
-0.109,8312
0.435,524
0.547,11
-0.234,10385
0.144,888
-0.048,6014
0.0077,4795
-0.396,9753
0.0528,3917
0.0126,4683
0.436,120
0.13,770
-0.106,7411
0.0458,3702
0.0539,2513
-0.133,8059
-0.247,10011
-0.0312,5893
0.226,476
-0.215,9379
-0.0569,6335
-0.00618,5047
0.27,67
-0.12,8241
-0.0639,6455
0.0522,3601
0.031,4446
-0.0127,5918
-0.11,9941
-0.176,7684
-0.342,8942
0.237,1304
0.0106,4843
0.0482,3935
0.318,1004
-0.0592,6803
-0.106,7390
0.0584,3013
-0.125,7376
-0.00178,4956
0.0326,3875
-0.129,8931
-0.12,8720
0.0627,3513
0.482,1061
-0.0781,8020
-0.00763,5251
0.0485,2597
-0.158,8494
0.0754,3864
-0.0376,6388
-0.135,8083
-0.029,6292
0.114,3545
-0.219,9379
0.00997,4653
0.214,822
0.0824,1186
-0.0945,8643
-0.0622,7373
-0.0106,5614
0.0335,4354
-0.176,9113
-0.00787,5321
-0.0117,5644
