coef,rank
-0.304,7145
-0.202,8640
0.229,1159
-0.254,8376
-0.304,7937
0.0469,3648
0.0408,3327
0.182,1425
0.0493,3740
-0.121,7836
0.0513,3424
-0.0638,7979
-0.0771,8007
0.0194,4690
0.028,4490
0.435,2075
0.0511,2221
-0.047,8149
0.0218,4295
-0.294,10423
0.347,403
-0.144,6586
0.041,3760
-0.226,10103
-0.0115,5072
0.133,2491
-0.153,9817
0.978,725
-0.0279,5555
-0.0989,8495
0.225,679
-0.00379,5002
-0.174,8898
0.708,116
0.0263,3946
-0.0453,7376
-0.0507,7066
-0.162,8027
-0.28,10291
0.0899,2579
-0.162,10006
-0.05,8471
0.173,1822
0.289,89
0.148,1860
-0.174,8683
-0.0273,6673
-0.000945,5127
0.0608,3572
0.0483,3392
-0.347,10416
0.13,2319
0.101,2549
0.174,151
-0.155,9185
-0.0597,6379
-0.141,6071
0.0922,3068
-0.0884,9223
-0.123,9463
-0.0409,5837
0.107,2134
-0.0674,8081
-0.044,7756
-0.145,9774
-0.0332,6742
0.221,149
-0.0514,7050
-0.00639,5244
-0.418,8403
-0.0236,6270
0.231,189
-0.0839,7299
0.199,1233
0.347,488
-0.147,9417
0.245,137
-0.0982,8456
0.258,51
0.125,1590
0.156,3518
0.284,882
0.0312,3665
-0.139,9707
-0.0978,8141
-0.0852,6757
0.3,97
-0.125,6779
0.0676,1809
0.0397,2939
0.0415,4135
-0.00865,5285
-0.209,8940
0.419,208
0.0515,3933
-0.101,9009
0.108,2862
-0.0702,8090
0.241,272
-0.0395,6228
-0.0612,7753
0.247,234
0.0451,3424
0.388,320
0.105,3310
0.517,81
0.0985,3135
-0.243,9910
-0.124,8051
-0.0116,5290
0.0792,3879
0.0543,3365
0.146,451
0.112,556
-0.245,10138
-0.00113,5115
0.0973,1517
0.125,2101
-0.0731,7191
-0.0647,8127
0.0491,3048
-0.0186,6032
-0.146,7399
0.36,1260
0.223,95
-0.0878,6689
-0.0202,5205
0.209,777
0.0937,2722
-0.183,9539
-0.0516,7336
-0.176,9837
-0.014,5322
-0.0203,6004
-0.737,8658
-0.0278,5331
0.0347,3729
-0.0623,7354
-0.237,8307
-0.0671,8343
-0.194,9012
0.209,981
-0.0107,5203
-0.115,9188
-0.0266,5616
0.00959,4842
-0.132,9703
0.508,86
-0.00106,5051
-0.0249,6253
1.03,449
0.0608,3590
-0.343,9611
-0.0334,6034
-0.0549,6501
-0.00242,5172
0.612,87
0.0316,4011
0.239,754
-0.189,9535
0.0914,2968
0.0528,2161
0.0175,4549
-0.106,7871
0.0867,1997
0.0299,3916
0.0472,3889
0.0507,3155
-0.0581,6478
0.0618,3605
0.00937,4963
-0.144,9951
-0.0459,8315
-0.216,10143
0.0305,3641
-0.0726,6658
-0.394,9882
0.0944,749
0.126,1113
-0.229,9682
0.233,109
-0.122,9548
-0.0176,6169
0.0223,3361
0.101,1978
-0.195,10249
0.089,2828
-0.0144,5798
0.52,697
0.132,1136
0.049,3203
-0.133,10400
-0.122,8998
0.123,2294
0.289,1159
0.0823,2141
0.371,69
0.599,110
0.00318,4985
-0.123,7498
-0.0813,7137
-0.18,8244
0.0787,1790
0.0409,3925
-0.034,5906
-0.102,7247
-0.112,8315
-0.0299,5654
-0.0614,7562
-0.0637,7942
0.133,1075
-0.104,7600
0.0854,2770
0.0472,3610
0.0272,3198
-0.0553,7428
-0.0191,5920
0.0677,3091
0.802,22
-0.278,5186
-0.0686,7137
-0.0587,7897
0.0823,1195
-0.048,6272
0.0423,4222
0.0656,3400
-0.0825,7929
0.00445,4747
-0.00867,5684
-0.0027,4846
-0.0875,7635
-0.0517,5916
0.181,1975
-0.0704,9026
-0.0326,5911
0.111,2389
0.326,1770
-0.0325,5845
-0.145,7888
0.728,258
0.146,2913
0.07,2544
0.0424,3710
0.135,1320
-0.0638,7272
0.0389,3605
-0.0114,5454
0.0136,4592
-0.149,8507
-0.0247,6121
0.0661,1783
-0.288,9568
-0.242,8591
0.0698,3560
0.174,2811
0.0791,2644
-0.111,8958
0.253,168
-0.0118,5446
0.156,1587
-0.0795,6966
0.121,1053
0.181,1120
0.0402,3977
0.122,1545
0.238,596
0.068,3861
-0.263,9908
-0.0288,7250
-0.215,9910
0.0864,2344
-0.0258,5362
-0.0489,6801
0.0985,2116
-0.0555,6345
-0.00116,5188
0.112,2017
-0.083,7022
-0.022,5833
0.175,831
-0.162,8310
-0.141,8550
0.0726,3488
-0.173,8957
-0.149,8825
-0.0963,9379
-0.0449,6256
0.0858,2953
-0.243,9736
0.167,1844
-0.0338,5478
0.0136,4499
-0.0873,8743
0.158,2715
0.107,1808
-0.113,7741
-0.364,10061
0.177,821
-0.00635,5183
-0.0293,5804
-0.0663,6967
-0.0684,6842
-0.273,8425
0.115,781
0.0134,4934
0.0187,4446
-0.0456,5352
-0.286,9877
0.0222,4064
0.0522,2497
0.0353,3775
0.106,2417
-0.285,9342
-0.15,7714
-0.0517,6454
-0.235,8855
-0.202,9339
0.00839,4602
-0.0652,7240
-0.403,10402
0.778,139
-0.0123,5746
-0.138,9484
-0.0677,7862
-0.279,10265
-0.133,10103
-0.246,7173
0.0212,4343
-0.128,9644
-0.293,9982
-0.0524,6288
-0.0869,6921
-0.00584,2950
0.0399,3512
-0.0231,6274
-0.146,9359
-0.0908,8655
0.0239,4270
0.121,2931
-0.0571,7860
-0.568,8386
0.311,817
0.0217,3806
-0.129,10165
0.386,252
-0.039,6913
-0.0236,5654
0.286,2845
1.44,102
0.0285,3197
-0.383,6449
-0.501,8310
0.0574,3587
0.156,2318
-0.166,9510
0.176,1383
-0.0184,6295
-0.0424,7611
-0.177,5522
-0.224,8882
0.273,903
-0.383,9180
0.00178,4905
-0.00741,5482
-0.234,7914
-0.0625,6439
0.0916,2302
-0.0206,5727
0.149,2119
0.0305,3818
-0.22,9938
0.0277,4559
0.00433,4868
-0.235,8941
-0.0302,5624
-0.0234,6041
-0.161,8394
0.0749,1470
-0.281,10262
-0.404,8888
0.0603,3147
-0.0853,7934
0.0975,2512
-0.0731,7343
-0.189,8381
0.0397,4073
0.117,1934
0.0522,3129
-0.099,7984
0.248,1413
-0.0721,7354
-0.165,7888
-0.0604,6672
0.163,772
0.475,392
0.156,1023
-0.295,10159
0.167,1229
0.0393,3815
-0.00466,5296
-0.044,6703
-0.105,7012
0.0593,3597
0.024,4497
-0.0249,7931
0.089,1999
0.155,2062
0.0144,4785
-0.104,7573
0.0196,4777
-0.0757,8229
0.0134,3944
0.0246,1785
-0.0818,7815
-0.0642,6039
0.105,2136
0.132,2520
0.129,574
-0.132,8562
0.497,49
-0.0412,6452
-0.105,7313
-0.0423,5682
-0.0267,6262
0.0849,2916
0.00589,4826
0.245,847
-0.0871,7550
0.00881,4764
0.0472,3406
0.223,1089
0.289,192
0.125,2762
0.27,162
-0.0433,5921
0.154,927
-0.0799,9202
0.577,1077
0.1,3016
-0.227,9449
0.478,705
0.171,383
-0.1,7901
-0.1,7153
0.0125,4771
0.113,2760
-0.186,8626
0.152,713
-0.187,8185
-0.05,5721
0.15,1750
-0.0325,5776
-0.0508,6695
-0.0377,6603
0.0399,2665
-0.165,8859
0.142,1747
-0.0188,5622
-0.0288,6480
-0.0334,6414
-0.0134,5317
0.0909,2760
0.493,215
0.132,1972
-0.245,10138
-0.0532,7243
0.157,999
0.0027,4729
-0.264,10060
0.0853,1886
-0.024,5611
0.0629,3276
-0.236,9634
-0.0597,7495
-0.131,7175
0.101,2060
-0.132,8727
0.0816,1871
-0.0195,5303
0.128,1350
0.114,2557
-0.18,8807
0.153,1334
0.0779,2503
-0.0738,8487
0.141,935
-0.162,10044
0.00639,4682
-0.00587,5137
-0.0903,10428
-0.117,8711
-0.135,9469
0.0869,3724
0.338,1140
0.0987,1790
0.011,4801
-0.202,10278
0.057,3326
0.0301,4313
-0.13,7542
-0.0326,6430
0.007,4479
0.0874,1991
-0.0555,5952
0.107,2079
-0.156,7164
0.0882,3474
-0.0997,7061
0.0315,3642
-0.145,6372
-0.112,6899
0.0142,4804
0.037,4238
-0.0297,6536
-0.0974,9105
0.185,438
0.076,2640
0.14,2353
0.0733,3336
0.00354,4872
-0.0553,6870
-0.314,9252
-0.031,5775
0.0413,4096
0.0114,4738
0.0553,2736
0.0534,3277
0.37,172
-0.0432,6661
0.118,1909
-0.22,9602
0.0848,2138
0.0146,4328
-0.353,6855
-0.192,4127
0.0364,4385
-0.35,10447
-0.171,8600
0.0118,4850
0.102,2645
-0.0839,6825
-0.124,8480
0.0427,3857
0.0136,4750
-0.121,8368
-0.212,10198
0.193,3112
-0.199,6591
-0.112,9094
-0.181,8856
0.0752,2621
0.149,2059
-0.0276,5651
-0.121,8567
-0.173,9325
-0.124,8232
-0.149,9174
0.123,1320
-0.227,9771
-0.14,8964
-0.0382,6651
-0.0254,5925
-0.113,8792
-0.152,9315
-0.166,8656
-0.0684,7882
-0.0684,7883
-0.0359,5965
0.0568,3455
0.0761,2674
-0.0402,6417
-0.0211,5683
-0.168,9526
0.0541,2415
0.279,1600
-0.0466,6854
-0.195,8700
0.364,1270
-0.0515,7164
0.0125,4444
0.0397,4239
0.0232,4069
0.153,589
0.13,2684
0.136,853
0.11,1588
-0.114,8421
0.124,1386
-0.144,7946
-0.279,8967
0.0565,1979
0.0535,3571
-0.0969,7282
-0.0508,6504
0.126,1968
-0.0314,6019
-0.0113,5507
-0.11,8998
0.161,1879
-0.0969,6809
-0.104,8004
-0.189,8961
-0.121,8778
-0.0165,5900
0.13,2846
-0.0332,6766
-0.114,7002
-0.0298,5336
-0.0427,6499
-0.0166,5648
0.101,2863
0.129,1368
0.159,1837
0.202,1275
0.00908,4711
0.0547,2636
0.109,957
0.0383,3910
0.0917,2494
-0.0358,6260
0.0128,4504
-0.161,8717
-0.113,9370
0.8,1231
0.222,2636
0.0421,3495
0.0853,1426
0.0889,1043
0.0834,2013
-0.354,10149
-0.0517,6606
0.231,76
-0.0318,7372
0.192,276
-0.000227,5056
0.342,625
0.326,397
0.134,1637
-0.0385,5876
-0.765,9610
-0.175,9586
-0.185,8329
0.0726,3147
0.0297,3901
0.139,1674
0.48,2601
-0.0933,8648
0.272,1715
0.34,699
0.15,308
-0.0161,5295
-0.252,6358
-0.255,5984
-0.18,8736
-0.0145,5261
0.0321,4181
-0.0631,6512
0.244,620
0.0746,1228
-0.11,7981
0.245,1342
-0.516,9894
-0.0782,8196
0.165,952
0.0302,3682
-0.0169,5362
-0.0497,6963
0.146,2951
-0.0504,7212
-0.21,10013
-0.0246,6098
-0.147,8338
-0.144,7474
0.175,1644
-0.0624,6626
0.000643,5114
0.153,1043
-0.104,7298
-0.0422,7194
0.113,2680
0.194,1917
-0.133,9457
0.0591,3858
-0.0188,5481
1.77,14
-0.146,9140
0.243,1115
0.00554,4542
0.03,3858
-0.312,10222
-0.142,7585
0.0744,3089
0.0243,4258
0.136,2337
-0.0543,6689
-0.262,10346
0.224,2820
-0.162,8872
-0.0258,5792
0.0288,3913
0.211,581
0.0685,2350
0.134,1945
-0.0395,5696
-0.48,8666
0.0688,2390
0.15,495
0.0244,3955
0.814,1
0.0741,1603
-0.0588,5383
-0.00689,5140
-0.00435,5145
0.168,2394
-0.15,8514
-0.189,9404
0.043,4095
0.129,1921
0.0223,4227
-0.222,7823
0.121,2742
0.289,2514
0.0241,4554
0.0269,3645
0.241,706
-0.0191,5428
-0.188,10150
0.0511,3690
-0.34,9448
0.0133,4823
-0.187,9850
-0.118,8352
0.0565,2969
0.479,729
0.556,1095
0.0998,1614
0.0615,2406
-0.0435,6457
-0.056,6862
-0.0895,7315
-0.0063,5152
-0.0505,7298
0.0511,3629
-0.164,8899
0.101,3422
-0.0789,7416
-0.0814,8396
-0.115,8918
-0.0529,6917
0.253,356
0.372,780
0.0155,4076
-0.0581,6814
0.0454,4183
0.00517,4915
0.0103,4538
-0.00182,4918
-0.174,9490
0.0714,3918
0.0325,4238
-0.106,7853
0.0269,4369
-0.416,10128
-0.283,9929
0.328,468
0.00645,4814
0.168,2235
0.362,1298
-0.0136,5189
0.12,2702
0.0419,3894
0.183,588
-0.14,9042
-0.0767,6364
-0.0677,8455
-0.0323,5301
-0.12,7267
-0.2,9457
-0.13,9849
0.0245,4316
0.372,231
0.00181,4880
-0.17,8546
-0.0346,6641
0.15,1437
0.0279,2003
0.0275,1124
0.000858,5362
0.0382,260
-0.00625,6648
-0.0887,3530
0.182,1778
-0.372,6236
0.0548,3257
0.133,1638
0.282,1552
-0.114,7200
-0.0859,6661
0.166,599
-0.0885,6852
-0.0498,6671
-0.343,9936
-0.0168,6440
0.114,1917
-0.1,8288
-0.0911,5592
-0.164,6381
-0.29,8898
0.251,2490
-0.106,7933
-0.111,7780
-0.39,8829
0.158,1832
0.19,1627
-0.329,8681
-0.0101,5519
0.102,2014
-0.336,9503
-0.123,8458
0.0346,3867
0.13,933
0.151,2925
-0.0441,5869
0.133,1556
0.0921,3394
0.127,2372
-0.091,8794
-0.0388,7986
0.119,2131
0.054,3368
0.0259,4355
-0.328,9944
-0.0448,5925
-0.162,9413
-0.11,7302
-0.0813,7676
-0.145,8525
-0.0224,5792
-0.0824,8463
-0.0898,7730
0.0203,4174
0.124,959
-0.0708,6309
-0.0358,5479
-0.134,9131
-0.0143,5750
0.629,80
0.048,3206
-0.0543,6336
0.387,681
-0.0746,7809
0.0877,2680
-0.102,6406
-0.0161,5954
0.263,609
-0.0203,5911
-0.0138,5868
-0.00441,5369
0.308,22
-0.143,9241
0.0685,3277
-0.171,8159
-0.0713,8522
-0.0452,7423
0.168,2774
0.114,2956
-0.0753,7517
-0.0473,6371
0.0436,4086
-0.0319,6643
-0.0419,6834
-0.162,6537
-0.226,10047
-0.0683,7797
-0.322,7864
0.106,1985
0.812,527
0.0326,3457
0.0223,4284
0.0697,2240
0.214,2871
0.893,1022
-0.12,6221
-0.329,9312
0.0714,3047
-0.4,9752
0.0148,4580
-0.0741,7649
-0.00452,5292
0.0431,3538
0.0382,3852
0.0594,3520
0.402,90
0.0418,3526
-0.14,9239
-0.0347,6176
-0.152,8134
0.183,508
0.192,1614
-0.0999,7103
0.22,892
0.0345,4253
-0.799,9686
-0.473,6230
-0.14,8355
0.046,4203
0.169,2048
-0.2,8886
0.206,1698
0.235,483
-0.11,8050
-0.0308,6556
0.00252,4998
-0.0598,9264
0.249,505
0.0404,4046
0.00929,4741
-0.0641,8051
0.0518,3587
0.0224,4113
-0.438,10167
-0.12,7997
0.031,4509
0.0894,3026
0.0286,3615
-0.0113,5549
-0.16,6635
-0.0225,5815
0.0794,2785
0.124,2998
0.0361,3602
0.049,3882
-0.254,8950
0.0782,2766
0.0927,2441
-0.342,10117
-0.0187,6465
0.068,2534
-0.0938,4104
-0.526,8694
0.0233,4564
0.0688,2470
-0.134,7236
0.0358,4137
0.221,1925
-0.185,8497
0.0173,4604
0.115,3136
-0.0798,8771
0.372,282
-0.567,8390
-0.45,9668
-0.0879,5260
0.0783,2523
-0.311,10365
-0.0548,6734
0.374,822
-0.284,8570
-0.0176,4732
0.0109,4964
-0.16,9631
-0.00666,4870
0.181,1175
0.691,168
-0.0945,8376
0.0473,2997
0.211,81
-0.0289,7327
0.0359,3880
0.0856,1814
-0.0962,9272
-0.0386,6970
0.0264,3698
0.0178,4424
0.11,1304
0.131,2981
-0.299,8766
-0.169,9287
0.0331,3827
0.00354,5031
0.187,1475
-0.254,10111
0.103,2713
0.0728,3119
0.0653,2725
0.652,1680
0.216,1815
-0.233,7341
0.0937,3448
0.0773,3177
-0.155,9360
-0.0532,6135
-0.0346,5941
0.116,1682
0.0225,4459
0.0326,4006
0.0716,368
0.0674,3542
0.0137,4061
-0.238,8032
-0.297,10328
-0.132,9835
0.191,643
0.0725,3454
0.0497,3249
-0.13,6629
0.126,1105
-0.0213,5663
0.0672,2062
0.11,2838
-0.291,9857
-0.332,9227
0.00872,4802
0.103,3114
-0.115,9003
0.0775,3204
0.135,1249
-0.114,7650
-0.00915,4596
-0.0162,5602
-0.204,10224
0.0636,3831
0.229,356
0.125,2105
0.451,806
0.15,895
0.159,753
-0.249,9589
-0.19,9448
0.388,593
-0.00419,5121
-0.102,8110
-0.0373,6621
-0.0281,6085
-0.151,8540
-0.0445,6904
-0.0465,5231
-0.0212,6364
0.193,318
0.19,2300
-0.434,10437
-0.0205,5594
0.226,872
-0.02,5492
0.206,1395
-0.0827,6514
-0.254,10001
-0.113,9751
0.115,1408
-0.0314,6621
0.00249,5079
0.024,4080
-0.117,9008
-0.131,8124
0.0998,3129
0.00736,4791
-0.0314,6340
0.0966,1752
-0.156,7883
0.103,1920
-0.136,7168
-0.224,9989
0.0774,1844
-0.244,8399
0.324,158
-0.0522,6480
-0.294,8788
-0.209,9810
-0.0718,7591
-0.189,8349
0.069,3082
2.07,81
0.165,1152
-0.0471,6805
0.0618,3002
0.0639,2768
0.0531,3608
3.26,160
-0.133,9444
0.0774,3008
0.0522,3043
-0.305,9561
-0.113,6484
-0.2,10042
0.0534,3188
-0.0651,8071
0.0747,2876
0.000266,5252
0.00332,4860
0.0343,4158
0.0825,2216
-0.0905,8456
0.0944,1551
-0.0648,7654
0.0256,4706
-0.207,9124
0.0188,4140
0.0334,3528
-0.0112,5313
0.0289,4039
-0.322,9223
0.0787,3368
-0.126,8194
0.0212,4567
0.228,820
0.0654,3688
0.354,894
-0.113,7018
0.0163,4450
-0.0698,7949
-0.277,9166
0.232,358
0.0409,3967
0.0504,4202
-0.0878,8087
0.00401,5018
0.252,1247
-0.118,8262
-0.237,9773
1.26,285
-0.0247,5284
0.125,756
-0.0613,7586
0.131,2195
-0.106,9349
-0.0487,5540
-0.0327,7131
-0.0614,6619
0.00637,4672
1.52,14
0.946,374
0.0418,4495
-0.0629,6940
0.0138,4411
-0.104,8371
-0.155,9924
-0.492,10298
-0.13,8080
0.116,1168
-0.0664,8019
0.124,2453
-0.258,9249
0.209,884
0.063,3122
-0.0349,6981
-0.00476,5162
0.0203,4551
-0.136,8877
0.0519,3468
0.402,852
-0.249,10201
-0.122,7222
-0.0407,6646
-0.00221,5260
0.128,441
-0.00261,5062
0.0867,1239
-0.0934,7118
-0.00748,5025
0.0335,3728
-0.34,8707
0.183,1342
0.0926,726
-0.0296,5764
0.00367,4821
0.142,1678
-0.0538,5945
0.0544,4090
0.0326,3555
0.14,676
0.164,2064
-0.182,8215
-0.0798,6992
-0.364,10446
-0.0769,7464
0.0325,3547
0.762,1241
-0.0408,6282
0.158,2761
0.232,410
0.0304,4147
-0.24,7922
0.207,640
0.553,166
-0.146,7240
-0.0465,6401
-0.069,8138
0.0346,3961
0.0777,2646
0.0371,3606
0.206,1143
-0.083,8130
-0.14,9962
0.0734,2079
0.0817,1534
-0.0561,5661
-0.298,10209
-0.0838,8042
-0.057,6915
0.183,874
-0.409,6144
-0.23,7911
-0.0992,7132
-0.356,7199
0.0415,3524
-0.256,9565
0.0401,3833
-0.146,9392
-0.092,7477
-0.0299,5943
0.396,476
-0.0301,6861
-0.0955,8399
0.112,1999
-0.143,7490
0.155,2512
-0.0787,7544
0.124,449
0.222,526
-0.305,10452
0.26,247
-0.091,8365
0.0469,2806
0.0542,2715
0.0193,4448
0.144,2395
-0.482,9448
-0.298,8950
-0.245,10053
0.0674,2975
0.0681,3167
-0.0309,6650
0.0381,3991
0.137,2445
-0.0137,5427
0.0675,3040
0.0161,4550
-0.562,9317
0.145,1467
-0.257,8825
0.0405,3431
0.187,594
-0.0791,8380
0.387,613
0.162,1244
0.0512,3698
0.0192,3707
0.166,809
0.0662,2938
-0.000581,5124
0.0613,2962
-0.292,9841
-0.0378,6197
0.368,848
0.14,2320
-0.0307,5992
-0.312,9662
-0.228,6111
-0.0832,7624
-0.0738,6218
-0.0635,6949
0.0272,4306
0.022,4562
-0.0573,5564
0.0641,2701
0.076,2919
-0.25,10100
-0.249,8322
-0.0173,5858
-0.0897,7544
-0.0809,8779
-0.186,9966
0.385,1204
0.163,899
0.00772,4723
0.238,200
0.00352,4726
-0.183,8595
-0.0941,7780
0.527,182
0.0375,3592
-0.111,9298
0.0454,3782
-0.0919,7106
0.125,956
-0.0842,8411
0.0471,2886
0.0193,4317
-0.0776,7932
-0.16,9198
-0.0627,6120
0.0827,3459
-0.0114,5302
-0.0227,6028
0.186,1061
-0.1,8264
-0.0331,6073
-0.346,9885
0.145,2096
-0.0844,8151
-0.144,9674
-0.148,8415
-0.0264,6109
0.167,2779
0.0139,4300
0.0424,3334
0.00188,4778
-0.0532,6101
0.0488,3397
0.029,4499
-0.0647,7270
-0.0904,9505
0.00529,4880
-0.295,10377
-0.0421,6364
0.0949,2654
0.249,1644
-0.0381,6063
-0.0541,8168
-0.0582,6356
0.0297,3930
-0.121,6935
0.0659,3537
-0.00874,5628
-0.00156,5221
0.02,4306
0.0651,3370
-0.314,10409
0.0963,2743
0.0742,2964
-0.0876,8562
0.0232,4291
0.141,1486
-0.27,10201
0.258,1106
0.056,3390
-0.0869,7445
-0.138,7909
-0.0285,6401
-0.0384,6306
3.42,84
-0.354,10310
-0.0294,5863
0.123,1282
0.431,14
0.136,2274
-0.0245,6069
0.0272,4120
-0.008,5437
-0.433,9296
0.0658,3195
-0.0585,5050
-0.105,7360
-0.0811,6195
-0.327,8957
0.117,2441
0.169,1362
0.296,612
-0.0222,5793
0.0751,1629
-0.148,8245
0.0715,3408
-0.157,8969
-0.234,9379
-0.0683,7543
0.248,34
0.0281,3988
0.47,19
-0.185,8394
0.039,3076
-0.151,7954
-0.0515,7387
0.462,474
0.155,858
-0.168,8885
0.0189,4417
-0.0142,6101
-0.0135,5887
0.102,2175
0.016,4357
-0.0581,5688
-0.395,8325
0.0311,3652
-0.0294,7042
-0.14,8083
0.0713,3027
1.49,210
-0.341,7451
0.11,1013
-0.152,9189
-0.185,9384
0.133,841
0.0288,4179
-0.164,9049
0.024,4429
0.0224,3966
-0.0918,9438
-0.00588,5484
0.0405,3341
0.159,954
0.048,1542
-0.0837,8078
-0.245,8802
0.0376,3388
0.412,804
0.133,1667
-0.0987,9219
-0.0407,6442
0.139,2093
0.0475,4219
-0.0249,6086
0.0739,3624
0.122,872
-0.00164,5211
0.0124,4027
-0.0322,5327
0.0339,1589
0.182,1510
-0.0908,7522
0.621,590
-0.186,8295
0.333,353
0.18,1339
-0.0725,5702
-0.169,8892
-0.126,6345
-0.0296,5880
0.0744,2597
-0.153,7810
-0.27,8350
-0.208,9635
0.0684,3288
0.051,3479
-0.223,10261
0.128,1855
-0.375,8149
0.589,1035
0.291,989
0.14,1489
-0.0704,7180
0.0568,2791
-0.0765,7697
-0.00195,5166
0.0909,3450
-0.0345,5721
-0.0348,7463
0.21,1007
0.248,183
-0.213,8940
0.429,73
0.0672,3731
-0.219,10458
-0.0324,7233
0.221,374
-0.17,9550
-0.0348,6388
0.388,864
-0.191,9260
0.0144,4426
-0.133,8861
-0.111,8066
-0.379,10074
-0.194,7323
0.0723,2561
-0.0765,7963
0.0293,3954
-0.0278,5841
0.0357,4335
0.112,2982
-0.0263,5970
-0.11,8525
-0.0736,7263
-0.015,5500
0.245,2214
-0.0325,6005
0.00087,5119
-0.127,8459
-0.252,9763
-0.135,8756
0.0156,4457
-0.159,7445
0.0648,3263
0.189,25
0.0576,3911
0.0795,3466
-0.116,7521
0.373,640
-0.169,9889
0.0621,3030
-0.197,9861
0.228,1226
0.124,3087
-0.269,8628
-0.0246,6690
-0.0206,6357
-0.0223,6193
0.00481,5053
-0.355,8875
0.099,1387
0.0647,2402
0.113,2729
0.0383,4044
0.248,1296
-0.187,8208
0.0141,4474
0.229,606
-0.124,9118
-0.0624,7254
0.0431,3322
0.0407,3999
0.0386,3936
-0.0723,7475
-0.126,9744
0.159,1833
0.083,3338
0.223,1134
-0.208,10094
-0.00309,5155
0.0485,2857
0.128,2935
0.0527,4028
-0.033,5348
-0.0333,5825
-0.194,9063
0.0276,4170
0.00997,4764
-0.0559,7083
-0.16,8840
-0.0685,7611
0.174,951
-0.0201,5394
-0.377,9896
0.159,1940
-0.212,7966
0.0202,4446
0.0809,1826
-0.0864,6969
-0.0012,4981
0.0459,2270
0.1,3549
0.151,2286
-0.0689,8532
0.133,1346
-0.136,9719
-0.491,7133
0.172,3277
-0.298,9862
0.0271,3993
-0.0623,7313
-0.0226,5192
0.0911,3735
0.079,1803
-0.0867,8271
0.0282,4457
0.0723,2765
0.032,3639
-0.00606,5530
-0.164,9213
0.0174,4630
-0.0894,7703
0.0739,2475
0.16,1117
0.0016,4857
-0.0562,6344
-0.0389,5588
-0.0607,6999
-0.0529,6528
0.183,1362
-0.0063,5205
-0.171,8390
-0.0552,6567
-0.0122,5957
-0.0333,7014
-0.322,8408
-0.371,6295
0.668,809
0.162,2119
0.0224,3933
0.0745,2191
0.0138,4524
0.289,434
-0.177,9626
-0.177,9926
-0.0583,7643
-0.066,6123
0.243,823
0.199,1060
0.0894,2027
-0.0643,6819
-0.04,6268
-0.194,10092
0.21,355
0.426,118
-0.133,8688
0.243,852
-0.17,9841
-0.167,10336
-0.146,8974
0.107,2604
-0.0656,5948
-0.62,9977
-0.172,9532
0.0389,3762
-0.16,7465
-0.151,7776
-0.0185,5729
-0.159,9580
-0.0234,5927
0.102,1422
-0.0944,9470
-0.0801,6373
-0.175,9346
0.0208,4254
-0.0628,7487
-0.246,10421
0.142,1512
0.577,8
0.0607,2231
-0.119,6520
-0.00625,5539
-0.227,10259
0.306,629
0.15,2742
0.106,2274
0.25,1072
-0.0641,7950
-0.078,6745
-0.0294,5951
0.0179,4701
0.295,1155
0.194,1222
0.0217,4374
0.0701,2761
-0.00283,5128
0.0585,3447
0.0641,3680
-0.0823,8550
0.0633,2168
0.0966,3154
0.689,439
-0.0609,7174
0.23,514
-0.123,8815
-0.156,9159
-0.0669,7840
0.0271,4503
-0.162,8428
-0.218,10114
-0.041,6541
0.0092,4680
0.016,4511
0.0188,4503
-0.0969,6447
0.0449,4015
-0.0442,6748
-0.0231,5905
-0.0444,6647
0.328,85
-0.184,8543
0.063,3755
-0.0745,8817
0.0588,2729
-0.125,7003
-0.0946,8898
-0.164,8604
-0.144,7934
0.321,176
0.141,1656
-0.102,9936
0.034,4105
-0.0683,7883
0.0871,2480
-0.0381,6537
-0.0345,6580
0.18,1800
0.00121,4842
0.0123,4693
0.147,3241
-0.0687,6209
-0.0376,6653
-0.101,8070
-0.0522,6560
0.196,796
-0.135,7432
0.0152,4375
-0.0772,8289
0.0137,4853
-0.107,8688
0.215,682
-0.136,8225
-0.0219,6021
0.218,287
-0.00561,5281
0.114,3242
-0.225,8559
0.192,1921
0.129,1772
0.0171,4495
-0.0584,7660
-0.209,8896
-0.0274,5762
-0.0589,6560
-0.0342,5959
0.059,3237
-0.176,7415
0.108,3212
0.0178,4187
-0.483,6913
-0.124,8243
0.0342,4433
-0.132,8474
-0.0927,7828
-0.103,8937
0.181,397
-0.183,8303
0.113,2354
-0.105,7834
0.128,562
0.0847,1196
0.202,159
-0.0134,5127
-0.183,8996
-0.0215,5407
0.0814,2522
-0.00172,5195
0.0393,3505
-0.182,9259
0.565,250
-0.179,8042
-0.145,7464
-0.065,7151
-0.146,10127
-0.129,8518
-0.176,9099
0.225,613
0.117,1593
-0.0307,6395
-0.355,9674
0.633,2438
-0.0692,6567
0.036,3865
-0.25,10131
0.0396,4027
-0.0177,5765
0.0748,3223
0.0154,4632
-0.068,8100
0.0413,3104
0.0425,3830
0.168,1681
-0.2,9702
-0.0733,6536
-0.121,9023
-0.0477,6670
0.00543,4912
-0.0602,6112
-0.227,8600
0.13,1507
0.122,2425
0.163,1819
0.236,916
-0.129,8514
-0.00293,5539
-0.0242,5937
-0.922,9300
-0.0651,6868
-0.0409,4743
-0.00441,5527
0.00115,5110
-0.338,5444
-0.0534,3326
0.163,2027
-9.93e-05,4877
0.035,4374
-0.0934,8390
-0.0318,6339
-0.0927,6623
-0.0563,5721
-0.0583,6258
-0.099,8874
-0.142,9523
-0.127,7932
-0.0669,7045
0.112,3018
-0.0964,4769
-0.0149,5905
-0.0318,6207
0.166,1343
0.0609,4081
0.0373,3849
-0.00291,4960
0.0294,3572
0.439,235
0.0391,4096
-0.222,10091
0.185,2379
-0.0931,6870
0.143,1922
-0.14,9794
-0.135,9162
0.171,1747
-0.0411,6748
0.361,113
-0.0298,8057
-0.0144,6239
-0.141,7623
-0.319,10405
-0.128,9725
-0.283,10256
-0.00692,5367
0.0292,3872
0.243,2253
0.105,3349
-0.156,6647
0.24,1011
-0.26,9918
-0.223,9289
-0.199,9795
0.304,1298
0.0559,3913
-0.227,9786
-0.00275,5189
-0.00277,4959
-0.117,7701
-0.0627,5719
0.0535,3743
-0.124,7912
0.139,646
0.106,2177
-0.05,8187
-0.026,6257
0.134,2102
0.0619,3593
0.0468,3393
0.151,971
-0.176,10128
0.08,2980
-0.307,8111
-0.0101,5598
-0.0714,7322
0.036,3475
0.181,1780
0.0484,4065
-0.12,8834
-0.326,9496
-0.0136,5648
-0.182,8579
-0.0935,7898
-0.00103,5270
-0.0696,8308
-0.024,6079
0.236,215
-0.0329,6224
-0.0414,5951
0.0974,2008
0.134,1974
0.00973,4618
-0.0812,9133
-0.0739,8029
-0.037,5827
0.0287,4245
0.182,155
-0.114,8949
-0.00187,5279
0.03,4109
-0.174,9128
-0.146,9110
-0.183,8258
0.0439,3974
0.053,3332
0.0855,1518
0.0553,3609
-0.288,7066
-0.13,7697
-0.234,9824
0.13,2142
-0.0878,7968
-0.212,9332
0.574,243
0.0886,1080
0.0961,2268
0.315,215
0.255,87
1.65,426
-0.062,6653
0.00338,4906
0.0848,3842
0.149,974
-0.142,8024
0.208,596
-0.0305,6015
0.0495,3314
0.0676,3653
-0.0251,6759
-0.00717,5416
0.036,4112
-0.128,7760
-0.021,5582
-0.203,10348
0.15,433
0.00108,5229
-0.0381,6402
-0.0147,5324
0.00877,4713
-0.00711,5401
0.0863,1734
-0.217,10214
0.177,735
-0.195,8991
-0.236,9025
0.2,273
-0.162,9549
0.117,2575
-0.604,10009
-0.065,8127
0.852,54
-0.108,8429
-0.0503,8246
0.0875,3628
-0.306,9789
0.203,387
-0.042,6882
0.0253,4397
-0.0294,6561
0.094,2390
-0.218,8502
0.0415,4102
0.374,856
0.195,2806
0.0897,2195
0.112,1096
0.0524,2502
-0.0686,6504
0.0154,4601
0.112,2459
-0.0853,7662
-0.07,7219
-0.204,9601
-0.114,8699
0.00625,4568
0.0827,3613
0.0817,2105
0.00348,5182
0.353,625
-0.0264,6255
-0.0508,5903
2.24,6
0.203,114
-0.214,9259
-0.024,5856
0.239,271
0.499,23
0.321,1369
-0.0677,6825
-0.0665,6605
0.168,686
0.208,1142
-0.173,8915
-0.115,8866
0.0448,3418
-0.226,8907
-0.42,10273
0.0297,3925
-0.589,10400
0.00939,4573
0.172,59
0.0273,3683
-0.0532,7151
0.11,1326
0.0443,3855
0.0127,4550
-0.226,9372
-0.0854,8642
-0.138,9009
-0.147,7731
-0.131,6884
0.0276,4070
-0.017,5344
0.0333,4179
-0.192,9416
0.109,2067
0.042,3586
-0.0981,6253
-0.0379,7063
-0.0668,7807
0.0448,2884
0.177,326
0.118,1423
-0.0949,7433
0.532,414
0.126,2488
0.01,4769
-0.09,7231
-0.466,10298
-0.0448,6080
-0.321,10277
0.0299,2862
-0.186,9437
0.00157,4983
-0.0495,6214
-0.0738,6366
-0.0402,6122
0.0358,4122
-0.163,9156
0.000716,5065
-0.136,8967
-0.138,9469
-0.131,9278
-0.116,9321
0.16,1745
0.0376,3763
0.0826,3645
0.193,1582
-0.104,7962
-0.105,9168
0.189,2062
-0.028,6338
-0.073,6937
-0.117,10093
0.133,2310
-0.0875,8827
0.0149,4540
-0.0747,7805
0.239,1207
-0.18,7363
-0.0144,5068
0.116,2791
0.071,3130
-0.341,10183
0.0954,3695
0.00429,4860
-0.169,7565
0.021,4241
-0.0584,6645
0.143,998
-0.0554,7626
-0.293,9584
-0.0916,9633
-0.0336,7733
-0.357,10284
0.148,2270
0.315,0
0.0233,4506
0.011,4554
-0.0491,7232
-0.115,7807
0.13,2255
0.039,4207
-0.0233,5453
0.136,2018
0.109,1554
0.113,1603
-0.109,8617
0.22,1369
-0.0513,6212
0.0728,3047
0.0738,2017
-0.141,9055
-0.0938,6375
0.139,2488
0.289,489
0.000789,5094
-0.0727,7942
0.107,1315
-0.349,10002
0.119,2989
-0.146,8119
-0.0758,8638
-0.0447,7881
0.0376,4338
-0.0482,5572
-0.283,8826
0.0205,4478
0.645,293
0.00253,4877
0.0518,3632
0.0457,3804
-0.0564,5758
0.0527,3836
-0.0312,6321
-0.247,9551
0.0565,3868
0.117,1458
0.153,2764
-0.389,9621
-0.0177,5985
0.0854,2564
0.056,3789
-0.0343,5889
0.412,265
-0.0539,6417
-0.0594,7117
-0.221,9750
-0.141,9191
0.0167,4544
-0.162,5576
-0.0974,6613
-0.197,9929
0.121,2620
-0.125,8524
-0.142,8839
0.133,1843
0.00777,4884
-0.0606,7043
0.182,844
0.105,2380
-0.277,7583
-0.00935,5402
-0.107,7468
-0.165,9487
0.0651,1887
-0.186,9339
-0.199,8955
0.0397,3461
-0.0403,5906
0.125,449
0.0549,2199
-0.00836,5069
-0.015,5429
0.0302,4163
-0.0509,6564
-0.26,9784
-0.08,7952
0.016,4583
-0.221,8051
-0.0109,5235
-0.425,10041
0.409,113
0.0287,3724
-0.0669,6491
0.109,2081
0.173,1022
-0.4,9180
-0.0333,6603
0.0959,1481
0.227,603
-0.0256,5839
-0.237,9914
-0.0389,5927
-0.119,8107
0.0362,3531
-0.0745,7239
0.0927,2013
0.255,1099
-0.0319,6017
0.194,279
-0.00187,5332
0.235,2234
-0.11,7008
-0.207,8695
-0.0571,6998
-0.0872,9084
-0.0292,6829
-0.199,9480
-0.0174,5259
1.25,166
1.14,393
0.209,587
0.245,21
0.0613,3558
0.289,135
-0.195,9998
-0.21,8551
-0.0452,6826
-0.0342,6661
0.0723,2970
-0.33,10369
0.187,756
0.213,1802
0.0961,1262
-0.0547,6935
-0.155,7729
0.261,328
0.0458,3711
-0.0359,6082
0.177,483
0.272,97
0.0875,2851
-0.131,8450
0.203,1725
0.189,1059
-0.0147,6008
-0.223,7540
-0.0155,5970
-0.103,7684
-0.0642,6572
-0.343,9593
-0.189,10009
-0.0858,8860
-0.0542,6074
0.00298,5048
0.183,1752
0.122,3389
-0.231,9377
0.234,1482
-0.0267,5413
-0.117,7977
0.161,1863
0.0977,2017
-0.0259,6415
-0.197,9109
-0.0804,8664
-0.0713,6334
-0.115,8138
-0.51,9933
-0.0519,6666
0.455,2258
0.0481,3645
-0.0408,5802
-0.105,7999
-0.0732,7409
0.12,941
0.268,809
-0.145,9199
0.126,3456
-0.0729,8884
0.00673,4962
-0.0366,6818
-0.0842,7436
-0.145,8699
-0.0702,6557
-0.122,8233
-0.153,9023
-0.334,9856
-0.0721,6926
0.227,889
0.055,3750
0.114,1681
-0.224,10097
0.0326,3342
0.0261,4391
-0.661,10079
0.0673,3932
-0.00523,5262
0.082,3045
-0.0702,7714
-0.0331,5496
-0.155,8561
-0.186,7962
-0.162,9611
-0.102,8355
-0.219,10372
0.029,4243
-0.0104,5428
-0.363,9679
0.52,444
-0.081,7581
-0.0924,9396
-0.148,10062
-0.131,8750
-0.54,10342
-0.222,6841
0.0066,4791
-0.0201,6281
0.0623,3726
-0.0873,6828
0.384,1715
-0.0562,6845
0.185,714
-0.0421,7107
-0.0359,6109
0.137,2695
-0.0746,8124
0.0497,2616
0.0862,1291
-0.0634,7425
0.156,1367
0.175,690
-0.189,9689
-0.111,8482
-0.212,9785
0.0375,4081
-0.128,7765
-0.148,8986
-0.238,9060
0.031,4313
-0.178,9374
0.144,1381
-0.155,9005
0.209,1683
0.64,1383
0.0281,4328
-0.115,8621
-0.154,8425
0.239,1885
0.0371,2857
0.056,3097
0.0866,2719
0.129,595
0.0407,3463
0.326,1269
-0.108,8148
-0.149,8696
0.0438,3991
0.0332,4147
-0.204,9809
-0.0878,7936
-0.0725,6926
0.14,1809
-0.138,7868
-0.186,8749
-0.254,10155
-0.156,9126
-0.432,9013
-0.273,9530
0.0727,3662
0.0558,3865
-0.0576,7057
-0.069,6650
0.0151,4454
-0.114,7035
-0.0393,7650
-0.0126,5777
0.141,254
-0.0271,5639
0.017,4626
0.0274,3772
-0.117,8077
-0.251,10441
-0.0607,6758
-0.0958,7374
-0.246,10153
-0.0806,5834
0.722,46
-0.11,9003
-3.97e-05,5374
-0.0172,5940
-0.0629,8405
0.0591,2503
-0.141,9741
0.0554,3932
0.124,1356
-0.0733,7829
-0.262,10245
-0.226,10145
0.124,1846
0.0997,3313
0.067,3026
-0.491,10207
-0.134,7132
-0.0477,7459
0.00345,4918
-0.231,9767
-0.157,9782
-0.137,9650
0.00289,4765
0.121,1581
0.155,1504
-0.202,9556
0.369,834
0.0503,3390
-0.038,6296
-0.0554,7315
0.00594,5008
0.0202,4525
-0.0356,6703
-0.019,5742
-0.115,8548
-0.0148,5320
-0.167,8088
-0.218,9598
0.00219,4770
0.0834,1972
0.0836,1879
0.344,1125
-0.0314,5744
-0.00533,5131
-0.128,9031
-0.216,10165
-0.15,8327
0.0521,3557
-0.0752,7650
0.15,2335
0.15,854
0.0209,4450
-0.0699,8490
0.182,268
0.15,2159
-0.312,9842
0.397,213
0.529,137
-0.00956,5798
0.109,3002
-0.00564,5041
0.0331,3781
0.0531,4143
-0.15,10334
-0.142,9783
0.961,96
0.158,2987
-0.0388,5778
0.162,1018
-0.0965,10139
0.00426,4815
0.59,643
1.21,21
0.307,582
-0.0153,5404
0.0909,2488
-0.25,9533
-0.0459,3413
-0.466,7013
-0.202,3472
0.0303,4367
0.0926,1948
-0.248,9789
-0.0556,6830
-0.212,5079
-0.234,9255
0.143,910
0.0247,3419
0.0302,4223
-0.361,10382
-0.00906,5340
0.2,2405
0.0258,4330
-0.122,9247
0.44,499
0.202,783
-0.206,7648
-0.127,9120
-0.18,9452
0.225,148
-0.26,9809
-0.231,8993
0.106,3126
-0.0662,8456
-0.196,8526
0.0661,2346
0.0943,2563
0.0813,3098
0.237,395
-0.0479,7047
0.0812,2933
0.182,820
-0.0505,6813
0.172,1708
-0.0289,4981
-0.0898,7958
-0.0145,6434
-0.052,6967
0.235,1511
-0.0414,6082
0.26,1650
-0.0457,7135
-0.192,10014
0.163,2121
-0.213,8710
-0.277,10363
-0.141,7034
0.357,554
0.0679,2488
0.00146,4916
0.367,673
-0.23,10346
0.3,2178
0.00758,4780
-0.0522,7120
0.401,63
0.149,1666
-0.116,7653
-0.115,7891
-0.0219,5675
-0.364,10211
0.109,2311
-0.148,8349
0.0196,4337
-0.0245,5236
-0.11,7571
0.0279,4125
0.017,4525
-0.0368,6266
-0.249,10092
-0.145,7884
-0.0148,5788
0.0269,3271
0.0425,4129
-0.253,7506
-0.432,9808
-0.182,7916
0.141,1739
-0.042,7313
0.0369,4061
-0.193,7554
-0.257,7950
0.0106,4789
0.49,321
0.163,2345
-0.103,7822
0.328,745
0.11,3360
-0.127,9441
0.0241,4238
0.124,1249
0.046,3689
0.108,2259
-0.0318,5914
-0.174,9884
0.166,1898
0.0593,2218
-0.0962,6632
0.134,2457
-0.257,8916
-0.309,10082
-0.0401,7089
0.115,790
0.757,17
-0.0849,7013
0.506,548
0.0529,4254
-0.0549,7277
-0.114,9218
0.0851,3033
0.304,408
-0.211,8431
-0.139,8243
0.0152,4186
0.06,2514
0.0772,3411
-0.0326,5847
0.17,963
0.0483,3852
0.0652,3052
0.164,778
0.0496,3334
-0.318,8021
0.111,3371
0.0813,3024
0.24,266
0.00884,4807
0.233,323
-0.135,8771
0.182,789
-0.037,5949
-0.0545,7001
0.087,1921
0.108,2311
-0.00587,5067
-0.0522,6838
0.184,1746
0.0487,2263
-0.186,9290
0.247,1577
-0.352,10016
-0.147,7296
0.0119,4555
-0.07,7588
-0.192,9783
-0.199,9450
0.012,4709
-0.0364,5902
-0.133,8111
-0.128,9645
0.0721,2343
0.0987,2162
-0.142,8436
0.26,1233
-0.0493,6485
-0.0234,6842
-0.0847,7839
-0.0139,5410
-0.115,8810
-0.0739,7652
0.136,2221
-0.117,7458
0.109,683
0.0361,4023
-0.149,8895
-0.0202,5519
0.333,1046
-0.171,10347
0.0142,4509
-0.00141,5054
0.176,1396
0.177,2267
-0.0205,4991
-0.0879,8413
-0.0555,6870
0.0255,4078
-0.00581,5286
0.0226,4410
-0.0452,6295
-0.137,9983
-0.0184,6144
0.0939,2219
-0.177,9023
0.0484,4022
-0.0262,5716
0.18,788
0.00712,4608
-0.0668,7091
-0.145,7912
-0.0722,6744
-0.262,7233
0.0381,4086
-0.128,8877
-0.119,8583
0.136,1689
-0.368,9664
-0.058,6356
-0.125,9016
0.00649,4845
-0.00934,5554
-0.0598,6956
-0.119,7898
0.372,1534
-0.137,8686
0.0756,2728
-0.348,9091
0.504,1161
0.178,1031
-0.0497,6650
0.0997,2627
0.0688,3191
-0.0931,7651
-0.0915,7443
-0.106,7816
0.16,2243
0.0375,3954
0.11,1629
-0.0481,6602
0.198,366
0.225,1715
0.51,541
-0.0899,8044
-0.045,8393
-0.13,6171
-0.0734,7032
0.141,1038
-0.0092,5494
-0.023,6253
0.00685,4871
-0.0262,5981
0.146,1888
0.194,2297
0.0608,928
-0.0872,9300
-0.0829,8165
-0.293,9813
-0.203,8580
-0.0999,7724
0.0382,4191
-0.00927,5642
-0.156,9611
0.0152,4604
-0.0701,6516
0.0308,4335
-0.0344,6566
0.153,205
-0.057,7806
0.236,822
-0.0861,7523
-0.289,9010
-0.115,7153
-0.0646,6449
0.0231,3937
0.0656,3987
-0.117,8185
-0.157,7255
-0.0342,6752
0.072,2146
-0.102,8765
0.0367,4222
0.104,3321
-0.276,9983
0.0346,3764
-0.0487,8364
0.161,714
-0.0539,6401
-0.205,7970
0.846,94
0.086,3244
0.169,661
0.063,2675
0.165,2648
0.375,752
-0.0392,6251
-0.146,7702
-0.00314,5294
-0.156,9151
0.0227,4500
-0.0964,7858
-0.287,9923
-0.144,9513
3.12,201
-0.0706,7263
-0.157,7310
0.0488,3889
0.242,2115
-0.305,10064
0.0154,3945
-0.198,9512
-0.488,8231
0.226,2003
-0.134,7113
-0.141,7019
-0.0801,8693
-0.169,10373
-0.161,4829
1.1,563
0.269,2931
0.0364,4253
0.0335,4523
-0.354,9482
0.312,1347
0.168,2903
0.191,666
-0.208,10092
0.124,3071
-0.267,5032
-0.306,9068
0.129,744
-0.129,9588
-0.873,9902
-0.289,8608
0.1,3551
-0.171,7979
-0.0723,7004
-0.437,6503
0.0297,4337
-0.0542,8102
-0.307,10184
-0.128,8960
-0.142,8170
-0.137,4702
-0.0539,6460
-0.336,9859
0.0768,3296
-0.0442,6254
0.427,2276
-0.202,7739
-0.019,5567
-0.363,7973
-0.221,9490
0.0141,4586
0.135,3252
0.0193,4571
0.0542,3936
-0.222,5363
-0.102,8704
-0.0854,7914
-0.0215,5580
0.0467,3019
0.00785,4603
0.0681,3495
0.159,536
0.0608,2673
0.194,1539
0.327,697
-0.0113,5203
-0.0304,6030
-0.161,9541
0.162,2496
0.0655,3120
0.108,1338
-0.0437,7885
-0.35,10356
-0.133,9064
-0.273,10352
-0.0462,6989
-0.114,10009
0.0316,4086
-0.691,9318
1.21,704
0.144,3467
0.024,4310
0.368,1806
0.00598,4939
0.0912,2787
0.0189,4334
0.154,1211
-0.0954,8280
-0.000452,5171
-0.105,7908
-0.0652,6514
0.0562,2488
-0.00116,4838
0.108,1503
-0.138,8911
0.421,1702
0.147,1119
-0.197,9997
0.207,1577
0.079,2091
-0.013,5995
-0.161,9605
0.195,966
-0.0893,8559
-0.16,9554
0.31,157
0.143,1915
-0.0487,7962
-0.0581,6216
0.0732,2901
0.0113,4792
0.0448,2503
-0.0104,5110
0.0847,3155
-0.0605,7455
0.117,2909
0.219,1072
-0.125,9972
-0.0143,6821
-0.1,7805
-0.251,9303
-0.122,9718
0.00262,4882
0.0206,4194
-0.0597,6977
0.0913,2757
0.19,2449
-0.0919,6680
-0.164,9413
-0.0516,6797
0.198,1639
0.0233,4200
-0.0762,6251
-0.148,8301
-0.199,8427
0.0924,918
0.0195,4332
0.0917,2528
-0.0264,5804
-0.0497,5812
0.0073,5060
-0.173,9529
0.0299,3891
-0.00995,5901
0.0178,4546
0.194,1298
-0.113,9135
0.159,1740
-0.053,6845
0.0431,4049
-0.201,8919
-0.0911,6293
0.891,775
0.0061,4566
-0.175,10227
-0.0222,6135
0.00628,4739
0.129,3317
-0.043,7448
-0.0218,6464
-0.119,8399
0.0249,4334
0.138,2372
0.000839,5072
0.323,146
0.0289,4218
0.00576,5047
0.0244,4112
0.135,1718
-0.277,8435
0.939,217
-0.0343,6458
-0.0681,8436
0.0861,3527
0.876,2
0.252,2461
0.294,1953
0.277,802
-0.0424,5607
0.731,499
-0.0123,5133
-0.402,7922
0.653,18
-0.142,7217
0.232,2188
0.00669,4740
0.0489,3055
0.364,755
-0.00924,5060
0.0496,1932
0.432,174
0.00217,4930
-0.171,9910
0.102,2856
0.176,1255
0.01,4698
0.00755,4725
0.134,1952
-0.0277,5756
-0.118,7719
-0.226,10199
-0.107,8626
0.113,777
-0.121,8002
-0.139,7829
-0.17,7758
0.0144,4485
-0.088,8939
0.0266,4340
0.0718,2923
0.0164,4281
-0.235,9209
0.483,739
0.135,489
-0.0671,8621
0.0784,3170
0.259,551
-0.0539,8299
0.279,692
0.237,17
-0.128,9268
0.184,2329
-0.221,9112
-0.153,7884
-0.154,8458
0.31,310
0.0328,3041
0.0175,4483
0.0397,3867
0.116,1909
0.164,1657
0.123,1613
0.148,734
-0.098,7563
-0.108,9048
-0.24,9935
0.31,857
-0.0427,6824
-0.102,8154
0.0435,3766
-0.296,9025
0.0926,3107
0.102,1793
0.0108,4612
0.0059,4819
-0.0178,5652
0.0594,2377
0.00932,4709
0.815,86
0.229,1468
0.0161,4518
-0.0487,6047
-0.0366,6018
-0.122,7325
0.312,222
0.0934,3096
0.0807,2972
-0.116,7799
-0.113,7217
-0.447,10137
-0.296,10148
-0.0271,6678
0.257,734
0.21,1235
-0.0884,6860
-0.263,3288
-0.156,10311
-0.0382,6515
0.189,608
-0.0899,6817
0.842,939
-0.00514,5197
-0.228,8446
-0.227,10086
-0.205,9105
-0.0404,5520
0.171,565
0.0668,2204
0.0353,4034
-0.0718,7027
0.00442,4938
0.0467,3428
-0.0619,7673
0.132,2318
0.08,3303
-0.152,10184
-0.124,7576
-0.176,9235
-0.25,9775
-0.037,5762
-0.298,8332
0.0881,3014
-0.0295,7314
0.185,1146
-0.161,9277
-0.0115,5617
0.379,162
-0.087,6865
-0.0689,9211
-0.711,8749
0.0358,3343
-0.417,5971
-0.416,7949
-0.295,6508
1.64,449
-0.166,4093
-0.23,9111
0.195,878
0.0944,2534
0.0204,4012
0.137,1043
0.0469,3805
-0.155,8896
-0.0681,6831
0.17,1408
-0.0144,5999
-0.0875,6995
-0.259,9629
-0.0438,5737
-0.234,9942
-0.0399,6141
-0.015,5456
-0.1,8116
-0.0346,6499
0.239,306
-0.0921,6620
0.0138,4217
-0.12,10050
-0.114,9204
0.00614,4764
0.0678,3066
-0.383,9802
-0.0128,5788
0.0388,3937
0.141,1776
-0.153,9273
0.284,724
0.362,1314
0.164,1374
0.0298,3622
0.181,1864
-0.179,8914
0.0627,3383
0.0477,3520
0.196,521
-0.229,8117
-0.158,8629
-0.0943,6582
0.0824,2445
0.219,55
-0.0315,6256
-0.207,8694
-0.323,9030
-0.0869,6438
-0.156,7515
0.133,1204
0.044,4019
0.0436,3711
0.284,266
0.22,1524
-0.0359,6472
-0.11,8328
0.581,41
-0.102,7889
0.249,336
0.153,1783
0.00188,5236
-0.0402,7002
0.0771,2799
-0.0152,5643
0.129,2784
0.0658,3453
0.0507,3720
-0.0734,8780
0.00193,5035
-0.0175,5810
0.0341,4111
-0.188,8932
0.0266,4125
-0.15,8632
0.152,1058
-0.00719,5429
0.0842,2279
0.107,2691
-0.125,9511
0.0511,2850
0.101,1912
0.208,636
-0.0715,6619
0.0896,1970
0.0413,2683
-0.165,10148
0.0775,2110
-0.0543,6003
0.308,320
0.00101,5163
-0.0782,8236
-0.0176,6034
0.0127,4902
0.25,589
-0.0545,6307
-0.00222,4870
-0.0294,6596
0.0102,4573
-0.159,7819
0.0672,3592
0.207,536
-0.0199,6174
-0.0353,6246
-0.0922,7944
0.0842,2610
0.518,39
-0.000854,4877
0.036,2852
0.0511,3774
-0.0646,7088
0.37,1454
-0.404,9833
-0.211,7351
0.191,499
-0.0603,7610
-0.36,10242
-0.112,6442
0.245,1451
-0.123,6684
0.0382,3975
0.098,1762
-0.0408,6770
-0.0421,6108
-0.194,9222
-0.162,7719
-0.0624,8365
0.103,774
-0.272,5476
-0.104,6890
-0.0828,6972
0.0935,2982
0.0402,3022
-0.0123,5565
0.055,3718
0.118,3229
-0.119,8975
0.229,1206
0.0314,3704
0.0562,2974
-0.111,9542
-0.0145,5635
-0.183,9906
0.188,1214
-0.0149,6076
-0.102,9693
0.0113,4840
0.158,2210
0.173,1719
-0.217,9493
-0.161,8630
0.131,2372
-0.16,8048
0.0617,3281
-0.088,7169
-0.114,6829
-0.049,6519
-0.0126,6034
0.0517,2598
0.0884,1488
0.0482,3960
-0.0431,6674
0.186,982
-0.0529,7604
0.0224,4044
-0.0646,6809
-0.116,9215
-0.11,7755
-0.0927,8124
-0.00173,5184
-0.4,9710
0.248,2647
-0.0427,5839
-0.274,9365
-0.373,10441
-0.108,9245
-0.149,8530
0.115,2890
-0.0531,5554
-0.4,9503
-0.000698,5007
-0.168,9687
-0.0688,8637
-0.144,8014
-0.268,9957
-0.133,7745
-0.0958,9616
-0.112,9709
-0.125,7787
-0.026,5827
-0.198,7181
0.169,2436
0.0289,4074
-0.534,9067
0.162,1645
-0.116,7165
0.109,3093
0.0671,2357
-0.0237,6381
-0.13,6711
-0.123,8654
-0.253,10308
-0.254,8284
-0.0705,7247
-0.0739,7332
0.0123,4585
-0.116,9090
-0.577,9316
0.0911,3250
-0.15,9762
-0.0163,5577
0.0152,4014
-0.276,8008
0.017,4825
-0.3,10360
-0.0991,8591
0.0315,4075
-0.243,9983
-0.116,8708
-0.115,9710
-0.128,7394
0.0759,2890
0.0424,3188
-0.0378,8367
-0.183,8047
-0.073,7544
-0.0606,7147
0.0537,3785
-0.215,9936
-0.0247,6111
0.0763,2084
-0.074,6668
0.0626,3256
-0.132,8649
0.111,1108
0.0621,2918
-0.124,8187
-0.19,8341
-0.083,8341
-0.0102,5118
-0.125,7774
0.0432,3435
-0.0591,5613
0.133,2018
0.177,1166
-0.286,7125
-0.165,9150
0.04,2084
-0.0588,8426
-0.0634,7239
0.011,4645
0.0451,3715
0.00237,4766
0.0103,4807
0.142,1336
-0.0392,5459
0.176,1484
-0.0254,6180
-0.0852,9084
-0.106,8461
-0.0417,6869
-0.0685,7954
-0.318,8200
0.224,1945
0.0214,3648
-0.0996,8801
-0.163,8064
-0.218,10217
-0.195,8604
-0.154,9216
-0.0713,6927
-0.0138,5296
-0.162,9293
0.071,4064
-0.193,8755
0.123,1126
-0.121,8628
0.139,329
-0.0123,5333
0.0131,4605
0.0987,2765
-0.26,9975
-0.00479,5318
-0.0724,7168
0.389,36
0.0438,3243
-0.0166,5572
-0.179,10210
0.0408,3454
0.182,946
-0.0279,6397
0.0743,2775
0.0197,4453
-0.295,10170
0.038,3411
0.0747,678
0.00302,4883
0.142,1042
-0.166,8148
-0.0676,6622
-0.187,9630
0.116,723
0.146,1871
0.053,2471
-0.0549,7217
0.0546,1565
0.281,276
-0.0627,8266
-0.0185,5734
-0.0235,6139
1.52,23
0.122,2811
-0.0252,6091
-0.00536,5093
-0.00833,5115
-0.151,9425
0.0224,4643
-0.0263,5948
-0.0401,5539
0.0554,3697
0.0484,3836
-0.0108,5323
0.249,761
0.151,1901
0.0103,4826
-0.00638,5461
-0.0602,7365
0.529,1074
0.0331,3969
-0.198,10152
0.635,24
-0.0743,9092
-0.174,9058
0.256,346
-0.281,9495
0.561,426
-0.0559,7023
-0.106,9518
0.483,60
0.62,83
-0.0926,7297
-0.122,7415
-0.0745,8001
0.0028,5045
0.0229,4317
-0.0472,5838
-0.141,8013
-0.243,9548
0.00126,5213
-0.0824,8875
0.251,357
0.258,831
0.0655,3085
-0.0548,6126
0.0376,3980
-0.0386,6273
0.0665,2465
0.013,4482
0.24,572
-0.00153,5117
0.159,1700
-0.237,9998
-0.0994,6580
-0.0221,5689
-0.0681,6580
-0.0196,6147
0.0873,2442
0.0669,2223
0.0501,2847
-0.0173,6009
0.0937,1943
-0.185,9018
0.104,1810
-0.0105,5560
-0.0819,8276
0.0104,4571
0.0412,3955
0.0782,3526
0.0105,4043
0.0206,4452
0.151,2359
0.165,1246
0.00954,4935
0.404,193
0.0669,2679
-0.0314,6476
0.175,1226
0.0371,3909
0.107,2840
-0.0134,5349
0.00942,4622
-0.0187,6317
-0.0049,5219
0.382,1149
-0.0903,8259
0.334,874
-0.111,7696
-0.059,8186
0.0658,1865
0.00738,4652
-0.0253,6024
-0.396,6471
0.0821,1447
-0.116,7310
0.134,1936
0.000694,4790
-0.139,8211
-0.178,7896
-0.155,9665
-0.00305,5569
0.0934,1878
0.303,1103
-0.0511,6771
-0.0382,6269
0.0397,3831
-0.0317,6140
0.433,967
-0.181,8537
0.181,1258
0.0831,2019
0.226,865
-0.0948,8864
-0.1,7765
0.29,176
0.016,4450
-0.161,9664
-0.307,9161
-0.182,6378
-0.0252,6969
0.00771,4682
-0.0642,7572
0.048,3642
-0.0532,7038
0.0618,4162
-0.0737,7617
-0.0663,7464
0.000828,5128
-0.0917,7624
-0.0717,7748
-0.0713,5547
-0.0566,7743
0.204,128
-0.395,10219
-0.000813,5163
-0.168,9022
-0.284,8729
-0.0347,6145
-0.121,10048
-0.299,10066
0.132,1596
0.0467,3705
0.28,994
-0.00584,5950
-0.0787,7505
-0.0424,6330
0.137,2323
0.0603,2625
-0.209,10118
0.255,536
0.00334,4877
-0.137,7246
-0.13,9431
-0.0268,5731
0.947,31
-0.156,9563
0.0238,4161
-0.121,8939
0.4,973
0.0749,3220
0.00728,4815
0.0543,3363
0.0662,2284
-0.00501,5181
-0.303,9354
-0.443,9909
-0.00696,5636
-0.0798,7044
-0.0172,5885
0.222,707
0.0482,3576
-0.182,9614
-0.0795,6786
0.0258,3624
-0.123,8653
-0.0599,6267
-0.11,8382
0.0606,3645
-0.101,7836
0.0227,3910
-0.152,9767
0.0203,4464
0.0622,3513
-0.0533,5866
0.184,2814
-0.0188,5676
0.121,925
-0.111,9107
-0.254,8551
-0.0555,6731
0.00834,4804
-0.0749,8314
-0.0383,6178
0.0733,3541
-0.00116,4768
-0.0151,5574
-0.0785,8080
-0.0101,5316
0.267,1184
-0.0269,6160
-0.0923,7311
-0.179,8299
-0.212,10126
-0.0883,9167
-0.15,9926
0.00171,4838
-0.243,9899
-0.111,7183
0.0978,2137
0.00281,4903
-0.0273,5901
0.112,3151
-0.051,6079
-0.047,6525
-0.136,4744
-0.00269,5192
0.0348,3330
-0.223,9810
0.04,3732
-0.0469,7334
-0.0264,5650
-0.0113,5784
-0.0847,8361
-0.0877,7486
0.0524,2102
-0.0558,6790
0.0747,2817
0.0287,3019
0.00137,5121
0.0472,4126
0.0436,3130
-0.0545,5867
0.00949,4699
0.114,1076
0.017,4359
0.0923,2662
-0.0402,7559
-0.277,10299
-0.0968,9440
-0.0125,5328
-0.113,8598
-0.0808,6419
0.18,1205
-0.103,8030
-0.031,5366
-0.118,7104
0.0578,3514
0.198,724
0.088,3574
-0.0399,5579
0.122,2108
0.227,1451
-0.136,8102
0.0194,4630
-0.0309,6033
0.0844,2291
0.347,440
-0.0149,5423
-0.00882,5446
-0.176,7157
0.179,3002
-0.0798,6378
0.236,1253
0.0981,1635
0.122,2419
-0.0777,6817
-0.046,7682
0.053,3592
0.243,851
0.0139,4244
0.0719,2706
-0.0749,6980
-0.131,8770
-0.00263,4892
-0.111,6638
-0.015,5642
0.0661,3144
-0.0161,5232
-0.273,8984
0.0633,3958
-0.0195,5755
0.035,4079
-0.197,10292
-0.112,8102
-0.197,9689
3.34,32
-0.085,7225
0.0448,3707
0.0782,3152
-0.0636,7454
-0.0601,6999
0.157,696
0.0668,2896
-0.135,9970
-0.0322,5989
0.204,1266
0.0672,3555
0.0615,3391
-0.24,9713
-0.0115,5084
0.242,575
7.49e-05,4851
-0.0898,7964
-0.0742,6001
-0.0298,5975
0.00871,4677
-0.0589,7780
-0.0271,5945
-0.0148,5627
0.161,2292
-0.0189,5709
-0.0315,6161
0.00918,4296
0.489,15
-0.069,6633
0.314,1798
-0.062,6679
-0.104,9091
-0.21,9929
-0.117,9660
-0.113,8163
-0.0246,6549
0.0109,4623
-0.00891,5563
0.215,947
0.202,2318
-0.549,8642
-0.375,5923
0.222,1743
0.0443,4490
-0.0402,6741
0.123,1486
-0.108,7574
-0.0171,5333
-0.18,6063
0.0225,4360
-0.0323,7061
-0.13,9753
0.0574,3223
-0.0991,9472
0.78,49
0.136,767
0.0606,2117
0.0933,3640
-0.409,10415
0.277,1175
0.409,1557
-0.162,9587
-0.155,9325
0.224,922
-0.125,8695
0.115,2196
0.0436,3529
-0.122,9470
0.00315,4956
-0.0168,5520
0.042,3569
0.0211,4173
-0.468,6387
0.209,1015
-0.0731,7594
-0.044,7052
-0.025,6580
0.155,1689
-0.0744,7475
-0.147,8698
-0.329,10367
0.0413,3922
0.117,1554
0.038,3893
0.0982,1368
0.00836,4735
0.0369,3455
-0.0168,5682
-0.168,8014
0.034,3720
-0.0231,5436
-0.0938,9057
-0.0295,6421
0.202,1767
0.0079,4643
-0.0926,8955
-0.168,8129
0.0585,1387
-0.08,8887
-0.0771,7915
0.233,2223
-0.298,9748
-0.202,8969
0.0918,1498
0.0316,4294
-0.225,9472
0.471,655
0.574,327
0.0032,4926
0.0394,3580
0.0257,4130
0.243,2488
0.204,469
-0.125,7630
0.38,679
-0.0405,7068
-0.0287,5710
0.225,1179
0.2,2084
-0.114,7306
-0.121,7628
-0.0205,6021
-0.0439,6944
-0.174,9056
-0.0764,7970
-0.434,10404
-0.155,9370
-0.0941,8783
-0.0281,6370
0.182,629
-0.13,7743
0.0575,3382
0.0329,3752
-0.161,9886
0.00709,4834
0.0907,2705
-0.274,10016
-0.594,7783
-0.0961,6871
0.0997,1739
0.109,1079
-0.0738,7190
-0.187,9974
-0.366,8739
0.0199,4158
-0.157,10266
0.00817,4764
-0.0347,6299
0.0517,3539
0.262,1714
-0.287,8806
-0.00419,5186
-0.134,7513
0.0127,4984
-0.3,10340
0.0704,3590
-0.024,5609
0.0839,3105
-0.0345,7023
-0.0139,5595
-0.0202,5109
-0.0981,9432
-0.0142,5376
-0.176,9873
-0.0143,5672
-0.197,7921
0.119,3035
1.2,18
0.0278,4186
-0.156,9623
0.119,2180
-0.12,7950
-0.133,7956
-0.196,7635
-0.0984,8627
-0.0396,7090
0.153,1725
-0.27,10447
0.0583,3577
-0.0596,6282
0.148,1230
-0.194,8860
0.00356,5298
-0.0927,7590
-0.12,8374
-0.381,9894
-0.227,8443
-0.0546,6910
-0.116,8418
-0.0132,5824
-0.153,8840
-0.086,8134
0.135,1868
0.0401,3522
-0.0102,5729
-0.105,7615
0.0703,3206
0.091,2969
-0.0421,5868
0.138,1060
-0.0726,8463
0.0733,2798
-0.000332,5296
0.899,126
-0.251,8171
0.203,1113
-0.148,9281
0.00866,3064
0.325,524
-0.0221,5671
-0.00916,5376
-0.214,5322
-0.0982,8404
0.0745,2436
0.0737,3278
0.113,2534
0.0378,4216
0.158,2459
0.0915,1920
0.0453,3122
0.0944,2036
-0.123,6362
-0.134,8772
-0.174,6906
0.0112,4806
-0.135,9370
0.0462,3849
-0.0562,7003
0.276,117
0.221,1109
-0.147,9744
-0.189,9950
0.0388,4204
0.136,2187
-0.0624,6019
-0.0511,5019
0.0515,3069
-0.062,7138
0.0294,3791
0.0267,4389
-0.295,7853
0.195,596
-0.143,9470
-0.14,9165
-0.188,8593
0.216,244
-0.0922,6923
0.0473,3252
0.195,1961
-0.0173,5847
-0.361,10429
-0.116,8047
-0.0743,7374
0.135,2094
-0.0417,7591
-0.069,8034
-0.0829,8028
0.072,2881
0.141,3340
-0.0495,6709
0.0401,3414
-0.185,10319
0.0404,3928
-0.43,7586
-0.0606,5255
-0.167,8055
0.248,164
-0.0474,6319
-0.169,8173
-0.074,7884
0.0127,4656
-0.186,8597
0.0372,3533
0.0325,3955
0.139,2109
0.163,1797
0.0254,4419
0.0698,3476
0.471,227
-0.0764,8493
0.00948,4925
-0.207,9807
0.0107,5035
-0.263,9585
0.0419,3875
-0.0745,8215
-0.118,8138
0.00726,4851
-0.0661,8348
0.201,2230
0.176,634
0.0196,3578
0.0866,1747
-0.264,7359
0.607,312
0.0284,4015
0.073,2668
0.192,121
-0.00199,4947
-0.00526,4942
-0.235,8472
-0.106,6881
-0.0136,5584
0.0239,4558
-0.194,9321
0.302,560
-0.0251,5778
0.408,1285
0.171,739
0.0177,4622
0.00652,4968
-0.0518,6936
0.32,563
0.507,139
0.11,1943
-0.00361,5266
-0.0153,5463
-0.0853,8199
0.00335,4837
-0.0396,6376
0.302,432
0.0106,4544
0.101,1899
0.0197,4415
0.0355,3722
0.167,2058
-0.0375,7044
0.00879,4416
0.193,1334
-0.0827,7630
-0.521,10170
-0.0932,8066
0.201,460
-0.242,10154
0.185,1541
-0.103,8289
-0.0322,6278
-0.000707,5165
-0.149,9352
-0.101,7746
-0.094,8945
-0.0556,7017
0.209,1319
-0.149,8670
0.188,480
0.00596,5117
0.0433,3869
-0.0253,5759
0.488,125
0.0728,3585
0.0869,1606
-0.0523,6661
-0.105,6848
0.006,4868
-0.312,9375
-0.109,9327
-0.0594,6288
0.0744,2764
0.0653,2921
0.0295,3991
0.00472,4912
-0.147,5968
0.0366,4088
0.00987,4746
-0.129,7460
0.0574,2698
0.245,1903
0.399,338
0.0152,3985
-0.105,9164
-0.00451,5149
-0.136,9281
-0.00899,5592
-0.115,7860
0.026,4090
0.127,1176
0.25,693
-0.112,7400
0.127,2769
0.35,387
-0.0166,5869
-0.037,6951
0.22,1048
0.466,180
0.0436,4281
-0.0256,5553
-0.0163,5784
-0.107,6474
0.242,2100
0.39,1864
0.0555,3816
0.133,2948
-0.148,8663
0.083,2975
0.00232,4802
1.03,11
0.0371,3767
0.12,1122
-0.151,9369
-0.442,10079
-0.131,7903
0.211,786
0.115,1953
0.0314,3828
0.0478,2957
-0.109,7181
-0.0565,6758
0.094,2947
0.105,3214
0.0552,3086
0.0178,4463
-0.137,9982
-0.192,8876
-0.312,10034
0.0106,4337
-0.255,10393
-0.0931,10033
0.0572,3983
-0.0239,5333
-0.00304,4987
-0.0286,6261
0.223,105
0.205,831
0.0708,2198
-0.167,8755
-0.082,7584
0.0468,3916
0.0689,1375
0.0817,1858
-0.121,7632
0.0819,2913
0.0331,3958
-0.000998,5142
0.0178,4448
0.00211,5163
0.0739,2598
0.00192,5031
-0.14,8271
0.0422,4149
0.0105,4500
-0.119,9735
-0.000512,5041
-0.0637,5934
-0.0943,5987
-0.184,7804
-0.0469,7831
0.209,130
0.286,145
-0.0345,5921
0.0219,4193
-0.0499,6210
0.0117,4394
-0.14,9130
-0.165,9355
0.19,816
-0.172,9726
-0.116,8643
-0.0476,7165
0.0419,3257
-0.0537,6366
-0.0783,6200
0.0728,3478
-0.151,8922
0.0517,3259
0.109,194
-0.125,8650
0.243,703
-0.306,10211
-0.0641,6618
0.0145,4498
-0.084,7362
-0.0972,8484
-0.112,7304
-0.154,10250
0.0493,3631
-0.0385,6878
-0.15,9607
0.194,1046
0.119,1228
-0.0805,7351
0.0501,3974
-0.0962,9303
0.0723,2198
-0.191,9427
0.396,231
1.02,51
0.467,1906
0.123,2321
0.0296,3836
-0.186,9686
0.0824,2590
-0.46,8737
0.428,1694
0.252,1224
0.0154,4718
0.0428,3843
0.0233,4207
-0.271,8957
-0.034,6390
0.134,1574
0.231,1994
-0.0996,7842
-0.0658,5792
-0.0978,6275
0.385,685
-0.0529,6611
0.185,1255
-0.0208,5807
1.74e-06,5014
-0.0575,7196
-0.0572,6829
-0.0131,6214
0.0272,4221
-0.0797,6952
-0.00249,5059
-0.0735,7251
-0.152,7198
-0.0579,7521
-0.0329,5941
0.0863,1866
-0.186,8628
-0.039,5892
-0.172,9266
-0.0188,5738
0.345,810
-0.25,8879
0.0176,4649
0.0944,2988
0.188,1166
-0.0962,8111
0.0871,2986
-0.103,8583
-0.0364,5850
0.519,236
-0.0352,5136
-0.0024,5237
-0.185,9275
0.179,2022
-0.0339,5659
0.352,1093
-0.00306,5234
-0.0708,7892
0.143,1867
0.189,635
0.085,2841
0.383,2209
0.0125,4697
0.123,1499
0.0309,4203
0.0174,4784
-0.0295,6896
-0.0609,7326
-0.119,9177
0.155,1788
-0.0903,7628
0.0894,2221
-0.0951,9080
0.139,2078
0.193,1238
0.0311,3920
0.00975,4681
-0.039,6000
-0.0993,7227
0.316,227
0.0753,3607
0.00303,4899
0.0139,4142
0.0734,2705
-0.386,10396
-0.0775,7012
0.0136,4566
0.0148,4417
-0.109,8639
-0.154,10086
0.052,3701
0.0715,3362
-0.314,10300
-0.104,9447
-0.102,9610
-0.0308,6148
0.132,2208
-0.0831,8158
-0.00502,5261
0.0572,2471
-0.0877,8379
-0.0189,5819
-0.0908,6383
0.12,3243
0.432,358
0.0347,3474
-0.0296,6872
0.0577,3766
-0.0435,6582
0.113,3389
0.0442,3702
0.0407,3397
-0.0514,8228
0.0347,3794
-0.0526,7142
-0.0409,7942
-0.196,9640
-0.319,10465
-0.0493,6143
-0.0817,7505
0.0312,4124
0.0703,3223
-0.0149,5339
-0.159,9944
-0.244,10385
-0.117,8278
-0.0833,7970
0.222,778
0.177,1395
-0.174,9693
0.0873,2110
0.0295,4564
-0.0536,5400
-0.618,9044
-0.144,6061
-0.0801,8864
0.0713,3295
0.0501,3818
-0.175,8624
-0.0969,6448
0.171,2700
0.0277,3567
-0.0249,6441
-0.101,6660
0.069,3328
-0.0988,5442
-0.248,8776
0.0427,3627
-0.479,8466
-0.11,8186
0.213,337
0.0439,3457
0.283,1187
0.193,832
0.15,1077
-0.197,9859
-0.332,9866
0.155,1303
-0.272,8322
0.173,1713
0.142,1777
0.168,1564
0.218,348
0.0577,3913
0.0527,3598
-0.0415,6759
-0.0204,6958
-0.361,8667
0.00708,5029
-0.104,7844
-0.133,9837
0.177,1528
-0.00848,5546
-0.0541,6324
-0.182,7248
-0.261,10195
0.0401,3968
0.0129,4406
0.0575,3897
-0.204,7930
0.0258,4399
-0.134,7406
0.186,2119
-0.0967,6630
-0.205,10421
-0.11,7651
-0.0317,6404
0.158,1634
0.035,4143
0.000901,4870
0.0519,1670
0.213,957
0.0118,4692
-0.229,7714
0.0264,4319
0.0268,4267
-0.166,8782
0.0183,4610
0.0342,4059
-0.0155,5250
0.337,2699
-0.05,7979
0.138,1924
0.0162,4450
0.867,168
0.111,2801
-0.0739,7414
-0.1,9725
0.185,272
-0.13,7404
0.116,2339
0.0125,4577
-0.143,7086
0.0493,2998
-0.038,6532
-0.0682,6010
-0.104,7818
-0.138,7167
0.0407,4038
0.0808,2617
0.0828,1569
-0.0909,8087
0.0258,4469
-0.291,9898
-0.152,10004
-0.0446,6841
0.14,1342
-0.0903,9005
0.0444,3775
0.0855,3009
-0.075,6616
0.0579,2560
-0.0653,8194
0.0112,4668
0.0142,4439
-0.304,9333
0.0503,3381
0.0213,4198
-0.263,9641
-0.121,7154
-0.116,8580
-0.139,8889
-0.133,7423
0.154,419
0.53,69
0.0112,4938
-0.189,8879
0.313,1694
0.682,198
-0.0457,8150
-0.0271,6473
0.26,1329
-0.192,10383
-0.235,5897
0.204,2621
0.00987,4491
-0.2,10200
0.0493,3545
0.21,1316
-0.253,8302
-0.302,9805
0.0632,2977
0.187,246
0.00711,4980
-0.151,8234
-0.28,9342
0.000339,4727
0.124,2480
0.11,1479
-0.0124,5374
0.025,4407
0.037,4346
0.262,1202
0.108,631
0.037,4008
0.707,418
0.287,526
0.148,2755
0.225,383
0.0858,740
-0.036,6825
0.134,2493
0.0874,2675
0.057,3766
0.0228,4342
-0.284,9968
-0.0747,8709
-0.231,8168
0.0784,2913
0.04,3689
-0.0841,7989
0.304,154
0.0575,1290
-0.0755,7502
-0.00953,5440
-0.0238,5593
0.0341,3864
-0.0562,7804
-0.0875,7095
-0.0181,7273
-0.023,6278
0.174,943
-0.121,7721
-0.0423,6608
0.0961,1626
0.0312,3887
0.0625,3403
0.0805,2568
-0.291,9926
-0.0269,5754
0.129,1417
-0.0681,7505
0.148,2389
0.264,385
-0.268,9099
-0.0589,6053
0.0333,3141
-0.0151,6275
-0.234,5788
0.398,917
0.899,1010
0.138,2683
-0.135,9081
-0.0368,7249
0.489,123
0.154,1197
-0.196,9075
-0.00255,4903
-0.0537,7728
0.0753,2120
0.68,57
0.0238,4167
-0.127,7929
0.0531,4034
0.0858,2458
0.173,1458
0.104,2660
0.00648,5074
-0.0249,5408
-0.325,9437
-0.0304,6025
0.0397,3415
-0.23,10420
0.00876,4879
-0.202,7644
0.0856,2639
-0.01,5587
-0.128,9609
0.489,1565
-0.0607,5722
0.0644,2086
-0.033,7045
0.0737,3693
-0.041,6915
-0.21,9982
0.0975,3015
0.164,1900
0.116,1008
0.13,2191
0.0619,3944
0.0501,3495
0.106,2989
-0.0102,5370
0.183,1430
0.0499,3181
0.122,1403
-0.128,8020
-0.146,9615
0.103,2990
-0.239,9785
0.0425,3682
-0.0712,6721
0.169,724
0.0187,4604
-0.0364,6340
-0.002,5223
-0.0834,7626
0.0388,3819
0.084,3055
-0.0554,6324
-0.1,8431
0.0333,3465
0.0672,2223
-0.182,9418
0.015,4716
-0.0168,5461
-0.653,10413
0.254,489
0.0885,1188
0.0989,3547
0.0471,3672
0.114,2392
0.0554,4122
0.0445,3647
0.181,1257
0.084,3144
0.163,2216
0.0579,3811
0.00474,4948
-0.0506,6912
0.0188,4680
-0.395,8027
0.0238,4219
0.141,2943
-0.227,7941
0.106,2159
-0.0649,8574
0.172,501
0.188,1115
-0.00966,5511
0.113,1608
0.136,916
-0.0335,7514
0.0588,3597
-0.0313,6358
-0.107,9175
-0.251,10110
-0.0403,7295
-0.217,9662
-0.099,7735
0.137,1860
0.0312,4151
-0.0499,7562
0.122,1400
0.0381,3431
-0.0715,7646
0.0167,4462
-0.21,9224
0.138,1370
-0.126,9893
-0.128,7543
0.741,1170
-0.0848,7340
0.44,1203
-0.209,9721
-0.0319,7138
-0.0871,7225
-0.305,6649
-0.129,7070
-0.00377,5341
0.0705,3408
-0.0946,8633
-0.0519,7443
-0.162,8883
-0.0178,6041
-0.0254,5596
0.259,1769
-0.0728,8190
-0.271,10331
-0.195,8401
0.199,742
-0.11,8030
0.143,2254
0.0602,3009
-0.0724,7479
-0.0214,6086
0.00544,4654
0.136,1224
-0.163,9216
-0.0619,7931
-0.0524,7291
-0.0141,5627
0.14,755
0.0831,3185
-0.165,9468
-0.154,8651
-0.103,9051
-0.0269,5714
-0.0696,7508
-0.0924,8190
-0.124,8601
0.0772,2936
0.164,1100
0.0933,2884
0.00183,4995
-0.0102,5338
-0.0881,6438
0.0646,2618
-0.02,5678
0.186,819
-0.101,8704
0.00196,4778
-0.117,6918
-0.0691,7078
-0.0319,5573
-0.0851,7688
-0.0178,5620
0.204,1311
-0.00373,5410
-0.0551,7796
0.163,1380
-0.0647,6734
0.0701,3695
-0.144,7984
0.0142,4629
-0.113,9382
-0.0996,7239
-0.181,8880
-0.459,9544
0.0519,3756
0.11,2163
-0.154,9193
-0.038,3932
-0.276,8310
-0.244,5520
-0.255,9897
-0.493,8480
-0.231,8813
-0.206,9608
-0.0715,6226
0.0719,2954
-0.0273,6455
-0.115,9224
-0.06,6290
0.126,1819
0.117,1817
-0.145,7642
0.00968,4726
-0.125,10179
0.213,1178
0.166,1597
0.0511,4120
-0.244,9055
0.0564,3310
-0.0306,6248
-0.0873,7090
-0.0233,5836
-0.189,9151
-0.155,8349
0.164,475
-0.203,10005
-0.0236,5894
0.236,390
-0.0312,5943
0.0763,3372
-0.0381,6249
-0.0526,7055
-0.239,9871
0.0871,2524
0.0622,3336
-0.0657,6678
-0.102,7491
-0.0477,7793
-0.171,4409
-0.462,10395
-0.245,9627
0.478,54
0.111,1295
-0.154,8999
0.0919,1301
-0.0615,6989
0.427,172
0.421,406
0.0637,2956
0.0442,1588
0.138,1567
-0.0116,4220
0.0195,4439
-0.0615,6979
0.0576,2883
0.0854,1751
0.275,765
0.00769,4662
0.159,160
-0.182,8588
-0.0397,6146
0.151,124
0.0442,3319
-0.53,9890
0.0558,3876
0.0677,3978
-0.244,9002
-0.209,9874
-0.0164,5317
-0.108,6779
0.198,1726
0.0203,4322
-0.251,9258
0.0452,3335
-0.605,9462
-0.276,6155
-0.0058,5132
-0.0974,7356
-0.118,7422
0.0133,4154
-0.129,9454
-0.041,7439
-0.0903,7731
-0.157,8673
-0.0545,5967
-0.176,8723
-0.136,7773
0.0949,2202
0.626,1548
0.0127,4475
-0.128,8204
0.314,405
-0.108,8331
-0.106,7581
0.211,490
0.214,695
-0.0709,6382
-0.0998,7677
0.133,524
0.128,2016
-0.0722,6759
0.439,12
-0.247,8553
0.144,2937
-0.0518,8195
0.199,325
-0.0357,5912
0.0269,4161
-0.247,9187
-0.276,10123
0.00296,4960
0.105,1692
-0.0926,7517
-0.11,8229
-0.0464,5916
-0.105,6812
0.219,199
0.163,1101
0.0485,3533
0.024,4429
-0.266,8098
-0.114,7485
0.211,581
0.273,12
0.0281,4375
0.334,337
0.236,1370
-0.00732,5278
0.0933,1990
0.442,33
-0.0444,6522
-0.243,9663
-0.301,8817
0.16,1001
-0.159,9802
0.247,412
0.306,370
-0.085,7754
0.13,649
-0.219,10063
-0.0248,6221
-0.0446,8133
0.268,563
-0.00567,5110
0.101,2866
0.165,2191
0.166,1514
0.162,1143
-0.00947,5401
-0.191,8086
0.0498,3847
-0.338,8832
-0.172,7293
0.241,943
-0.331,9377
0.414,2026
0.0275,4413
-0.00328,5161
0.182,1577
0.121,2132
-0.113,7774
0.0546,3915
-0.152,9095
-0.013,5709
-0.0903,7913
0.268,1413
-0.232,10395
0.0317,4003
-0.265,9954
-0.0206,5871
0.0798,1336
-0.0189,5427
0.0108,4482
-0.315,7549
0.0843,2901
-0.0261,5771
0.0497,3022
0.064,3623
0.225,2189
-0.0477,7348
0.163,1158
0.0227,4247
-0.231,8944
-0.0168,6499
0.244,586
0.573,602
-0.136,7024
-0.0845,7391
0.339,219
0.0346,3920
0.23,471
-0.0269,6206
0.114,1384
-0.0274,6115
0.0705,2158
-0.18,10169
0.108,1867
0.451,107
0.025,4470
0.204,2957
-0.00515,5403
-0.064,6542
-0.0216,6070
0.0953,2935
0.106,2534
-0.102,7450
-0.128,9164
-0.0466,5677
0.15,617
-0.137,8315
-0.087,6843
-0.0144,5605
-0.00355,5191
-0.112,8376
-0.132,7997
-0.229,8919
-0.197,9056
0.0704,1676
-0.0361,6130
-0.475,7286
-0.119,4190
-0.347,6643
-0.123,7931
-0.37,8791
0.0642,4078
-0.0844,6975
0.0661,2694
-0.196,9070
0.0395,4147
0.0701,2365
-0.215,9792
-0.0266,5360
0.184,3213
0.0562,4108
0.9,1571
-0.262,5587
0.298,1630
-0.133,7428
0.133,1286
-0.105,6309
0.351,316
0.0633,2129
0.0205,4110
0.153,2534
0.136,1420
-0.043,6593
-0.035,5193
-0.0641,8957
-0.0113,5380
-0.169,9424
-0.121,7086
0.0204,4304
-0.351,10286
-0.192,9631
-0.0666,7265
-0.277,8541
0.514,730
-0.488,10034
0.145,1678
-0.201,9887
0.0111,4713
-0.131,7926
0.0651,3179
-0.0968,7841
-0.0605,6906
0.03,3589
-0.0995,8986
-0.109,3523
-0.266,10300
0.14,2616
0.187,1400
-0.0472,6923
-0.0659,7985
0.116,1089
-0.0297,6183
0.625,550
0.0524,2052
-0.0477,6585
-0.0775,8538
-0.128,9577
0.385,1434
0.000387,4838
-0.00208,5117
-0.127,8059
0.0397,3750
-0.0215,5756
-0.128,7667
-0.0333,6092
0.0666,3108
0.0224,4108
-0.0857,8706
-0.029,5811
0.142,2266
-0.0283,5752
-0.236,6886
0.443,27
0.0701,2888
0.0295,4254
0.0375,4058
0.0695,3557
0.0652,3860
0.0353,3976
-0.167,9623
-0.0832,7913
0.0653,3753
-0.167,8073
0.357,1772
-0.178,9841
0.0391,3157
-0.066,6717
0.0631,3578
0.0409,2416
0.793,56
0.00774,4743
0.0296,4201
-0.0169,5401
-0.241,9997
0.0173,4582
0.164,1796
0.0848,3103
0.25,81
0.0985,2422
-0.0313,7080
-0.307,8269
-0.0521,6588
0.068,2374
-0.0269,6147
0.201,997
-0.0768,7240
-0.134,5819
-0.197,8650
-0.0595,6892
0.00317,4813
0.196,365
-0.0893,6574
-0.225,6577
0.104,1987
0.00808,4917
0.0682,1871
0.0715,3803
-0.238,5038
0.438,1604
-0.111,8586
-0.227,7089
-0.402,10409
0.125,2158
0.585,300
0.00367,4911
-0.112,9381
-0.0245,5962
-0.0152,5138
0.552,34
-0.113,7216
-0.226,10169
-0.109,8707
0.112,1073
-0.155,9738
-0.173,9272
-0.15,9940
-0.107,8292
-0.197,9903
0.127,1822
-0.0918,6303
-0.0523,6923
-0.265,6686
-0.0757,5943
0.132,1969
-0.155,8839
-0.138,9082
-0.0688,7457
0.13,1712
0.0287,4195
-0.203,9944
0.204,1767
-0.0568,6411
0.0657,2913
-0.362,9934
0.115,2779
-0.306,9142
-0.0378,5717
0.0121,4745
0.0653,4142
0.361,2242
-0.0529,6917
0.0366,3823
-0.016,5725
0.112,1749
0.403,315
0.0635,3483
0.167,2066
-0.153,8539
0.0586,3309
-0.182,7721
-0.0878,8363
0.0388,3856
0.0339,4014
0.174,441
-0.124,8276
0.000332,5300
0.0806,2682
0.0228,4634
0.0933,2477
-0.0235,6063
-0.125,9725
-0.125,8497
-0.0824,6528
-0.0264,5781
0.257,897
-0.12,10393
-0.0097,5076
-0.00407,5135
-0.19,8958
0.167,1638
-0.119,8279
-0.219,9627
0.0438,3273
-0.19,7896
0.211,1778
0.0251,4454
0.0869,3118
-0.0365,6870
0.0529,2943
-0.395,9973
0.159,1896
-0.308,9476
-0.005,5040
0.0152,4638
-0.0939,9028
0.0555,3524
0.15,1265
-0.422,8539
0.155,3288
-0.00749,5434
-0.217,10299
0.138,1613
0.137,1388
0.0198,4507
-0.071,6377
-0.136,9917
0.0302,3897
-0.106,8562
0.122,2153
0.0619,3942
-0.239,9912
0.3,753
-0.0477,6940
0.181,794
-0.0772,6589
0.00812,4718
0.0895,2537
0.0444,2921
-0.0434,6959
0.284,2287
0.0283,4490
0.142,1262
0.124,1665
0.201,423
-0.03,5337
0.0266,4350
-0.202,10131
0.182,1858
0.259,838
0.164,1558
0.0521,2144
0.153,2928
0.137,1709
-0.0256,5959
-0.171,8051
-0.053,7768
0.127,2323
-0.144,9048
-0.0155,5259
-0.308,10445
-0.0328,6032
-0.153,9175
-0.221,9429
-0.303,10278
-0.25,10231
-0.29,9662
0.0532,2420
0.0287,4237
0.0952,1579
-0.119,8197
0.0736,3333
0.125,3043
-0.102,8388
0.00559,4662
-0.00374,5326
-0.166,8755
-0.0955,7051
0.323,551
-0.04,6559
-0.109,8660
0.0339,4052
-0.0211,5447
-0.0656,7200
0.128,577
-0.163,9540
0.136,1467
0.00912,4729
0.245,884
-0.172,8164
-0.0182,5213
0.0392,4260
0.0629,3354
0.0469,2787
-0.0485,5845
0.64,76
-0.335,10281
0.0565,3861
0.0109,4603
0.0246,4002
-0.165,8636
0.0243,4621
-0.5,10451
0.143,1990
-0.00455,5257
0.0648,3323
0.0467,3531
-0.132,7585
0.0541,3438
0.234,922
-0.0298,6524
0.0632,2969
-0.0861,7343
0.25,749
0.324,915
-0.0564,5913
0.408,587
-0.0911,8460
-0.132,7618
-0.0299,5562
0.161,2047
-0.00487,5341
0.129,1345
-0.075,8570
-0.273,9979
-0.0879,6435
-0.0644,7436
0.202,1684
-0.055,7141
-0.0431,7497
-0.0782,6910
0.171,1915
-0.0148,5606
0.0956,2457
0.00337,4982
-0.12,10104
-0.0541,6779
0.022,4226
0.377,764
-0.00557,5275
-0.0608,7542
-0.0299,7161
-0.162,9039
-0.00622,5264
0.061,3625
-0.365,7408
-0.142,9884
-0.295,10449
-0.0823,8071
0.149,1635
-0.234,9087
0.299,212
-0.0584,7227
0.0151,4623
0.0146,4827
-0.00986,4599
-0.147,7805
0.378,130
-0.0898,8367
-0.126,8203
0.0659,3768
-0.0575,6122
-0.0251,6060
-0.116,6038
-0.127,8596
0.0794,2104
-0.0368,5798
0.0691,3220
0.0166,4538
0.265,546
0.0347,3059
-0.14,8963
-0.0106,5334
0.0962,1880
-0.0937,7005
0.0788,3776
-0.143,9700
0.236,90
-0.4,10039
0.00216,5117
0.25,583
0.0338,4568
-0.0788,8167
0.0908,1118
0.055,3979
-0.238,8861
0.0208,4596
-0.116,8679
-0.0451,6591
0.0519,3223
0.0063,4735
-0.21,9021
-0.184,8957
0.0945,2249
0.0936,1668
0.0707,3624
0.0237,4121
-0.122,8050
-0.311,7477
0.0366,2583
0.145,1589
-0.0221,6092
-0.284,10281
0.118,1303
-0.255,9761
0.0133,4529
-0.0796,8107
-0.294,9884
-0.433,10343
-0.0955,7149
0.0603,3621
-0.237,9950
-0.00805,5328
0.116,2643
0.275,190
0.315,342
-0.0935,7526
0.0437,3140
0.00669,4794
0.0574,3907
-0.0696,7070
-0.065,6827
0.286,1885
-0.134,9952
1.45e-05,5136
0.0352,4347
0.16,853
0.106,2812
-0.238,8336
0.103,776
-0.0984,8181
-0.00164,5306
-0.0717,6504
-0.0237,5794
-0.0166,5891
-0.0924,8226
-0.104,8364
0.0827,3257
0.0712,2077
0.174,3234
0.0843,2864
0.218,418
-0.114,9412
0.0339,4083
-0.0266,6163
0.0407,3615
0.271,898
0.113,1198
0.202,1296
0.239,871
0.134,2276
-0.0336,5249
-0.328,8343
-0.0229,5804
-0.135,8862
-0.0457,5179
0.126,2927
0.224,1466
0.0939,2841
0.017,4519
0.0731,2589
-0.148,9031
-0.111,9604
0.0501,1968
0.0021,5125
0.113,992
0.186,334
0.082,2901
-0.414,6214
-0.431,9004
-0.158,5663
0.0743,4215
0.00803,4693
0.485,762
-0.0146,5399
-0.0342,6156
0.138,1773
0.158,978
0.0365,3834
0.181,904
-0.00349,5164
-0.167,8715
-0.164,4539
-0.00455,5355
0.0367,3197
-0.123,8808
0.0593,3125
0.0277,4290
-0.197,8982
0.034,3870
0.0135,3729
-0.446,9113
0.167,1538
0.403,1490
0.181,1671
-0.088,7934
-0.0698,9115
-0.102,6693
0.145,792
0.11,1668
0.0459,3663
0.0245,3859
0.0219,1815
0.0725,2579
0.101,1654
-0.167,8643
-0.116,9425
-0.209,10440
-0.271,9643
-0.153,8078
0.169,2150
-0.0678,7848
0.0283,4525
0.0956,2164
-0.278,9640
0.458,1357
0.147,2667
-0.379,10227
-0.124,9215
0.141,803
0.00685,4785
-0.0477,6110
0.0529,3672
0.0371,4389
-0.406,7909
-0.0428,6838
-0.00777,5574
-0.196,9155
-0.318,9491
0.171,1284
0.649,531
0.194,1078
0.047,2983
-0.041,6346
0.333,631
-0.0511,6801
-0.226,8928
0.507,4
-0.167,9284
0.156,486
0.0591,3820
0.211,685
0.00266,4806
0.132,953
-0.181,10077
0.0609,3259
-0.0169,5497
0.112,3221
-0.347,9323
-0.0382,7604
-0.0316,5943
-0.167,9986
-0.091,7967
-0.0764,6642
0.17,2252
-0.0802,7514
0.168,2144
-0.113,7809
-0.17,8126
0.0776,3495
0.0965,3000
0.0464,3087
-0.00153,4988
-0.128,6942
-0.0137,6042
0.517,388
-0.123,7416
0.171,1698
-0.084,6925
0.0813,2092
-0.0252,5703
-0.335,9642
-0.0122,5740
-0.119,8372
-0.0892,9901
0.335,153
-0.259,9724
0.265,709
0.242,813
0.108,1425
0.275,346
0.483,381
-0.309,9938
-0.00542,5317
-0.0939,7246
0.0159,4671
-0.0525,7514
-0.11,8574
-0.0184,5604
0.101,2251
0.0113,4722
0.124,2240
0.0685,1851
-0.114,4468
-0.132,6983
0.0831,2218
-0.112,6199
0.168,927
-0.0315,5952
0.231,1413
0.0968,2050
-0.125,7475
0.143,1167
-0.178,9146
-0.0484,6686
-0.0711,7014
-0.0905,9181
0.0473,4093
-0.17,8518
-0.0244,6108
-0.0983,8289
0.313,477
-0.0129,5780
0.0358,4077
-0.03,6088
-0.312,10116
0.0116,4679
-0.007,5425
0.0139,4637
0.199,915
0.141,2399
-0.337,10177
-0.0651,6644
0.114,2081
-0.0855,6056
-0.0491,6857
-0.0185,5267
0.382,120
0.0163,4617
0.132,1470
-0.313,9781
-0.787,8694
-0.0261,5891
-0.0767,7617
-0.0851,7755
0.0224,3711
-0.129,6323
-0.13,7577
-0.355,5669
0.0364,4276
0.0572,3297
0.28,1272
-0.0881,7076
0.0653,2147
0.0304,3359
0.138,1465
-0.267,8885
0.103,3156
-0.0684,7152
-0.0417,7832
-0.0272,6594
-0.129,8297
0.00645,4805
-0.213,10320
-0.278,10149
0.112,2365
-0.0429,7214
1.6,8
-0.158,9638
-0.138,9907
-0.141,7250
-0.181,9493
0.0331,3418
-0.262,8539
-0.0141,5322
-0.211,9598
-0.0777,7598
0.143,1520
-0.308,10274
0.114,2866
-0.00773,5313
0.323,57
-0.164,7417
-0.127,9503
-0.115,8949
-0.182,8749
0.0417,4081
0.477,401
0.129,2730
0.0236,4075
-0.0732,7483
-0.255,9166
-0.0979,7326
-0.189,9455
-0.00559,4934
0.105,1710
0.146,421
0.101,1098
0.239,1144
0.269,2195
0.143,2085
0.273,292
-0.0373,7320
0.175,861
-0.323,9934
-0.292,10004
0.179,1151
-0.0962,8793
0.117,1791
-0.125,8633
-0.0235,5595
-0.2,9034
-0.0765,7728
0.159,546
0.0229,4132
-0.102,6880
0.117,1661
0.225,1511
-0.22,9781
0.0367,3954
0.0432,3664
-0.0838,7305
-0.113,9591
0.257,278
0.0159,3991
-0.0589,6602
-0.00299,5132
0.261,691
-0.00625,5615
-0.00288,5297
-0.0363,5583
-0.0601,7803
-0.158,9164
-0.0154,5896
0.0336,3562
-0.000775,5286
0.205,1053
0.167,1035
0.184,872
0.0625,3457
0.138,1947
-0.135,8661
0.152,1555
-0.107,7407
-0.224,9951
0.116,2670
-0.00401,5063
-0.0179,4911
-0.0114,5303
0.0529,2952
0.00624,4922
0.133,1117
-0.163,8065
0.298,70
-0.00581,4960
-0.109,9362
0.167,355
0.148,1008
-0.181,9273
0.408,1464
-0.17,8114
0.0474,3058
0.0795,2279
0.217,869
-0.0288,6100
0.209,1622
-0.136,8231
0.0412,3916
0.0376,3336
-0.168,9626
-0.069,7197
-0.283,10196
0.174,557
0.102,2957
-0.102,7360
-0.105,7502
0.178,2069
0.102,3865
0.144,3004
0.129,1284
0.00254,5173
0.0442,3936
-0.141,6691
0.0191,4313
0.0674,3728
-0.0398,6249
-0.0217,6139
0.0827,3235
0.0728,2703
0.183,1068
0.123,3267
0.384,675
0.043,3908
0.114,2852
0.029,4466
-0.0604,7236
-0.0453,6529
-0.00854,5758
-0.0315,6532
0.0242,4220
-0.0157,5541
-0.134,8258
-0.113,8533
-0.00366,5279
-0.024,6535
-0.0786,8010
-0.189,9474
0.187,1738
-0.0504,7043
-0.0788,7864
-0.0776,8577
0.00551,4850
-0.035,6224
0.0203,3881
0.508,1210
-0.144,9498
0.183,743
-0.186,8046
0.272,1818
0.203,519
0.0148,4785
0.0327,3722
0.117,476
0.0494,3948
0.0973,1965
0.0349,3837
-0.0508,6887
-0.0474,6551
-0.0962,7984
0.179,275
-0.147,8848
0.0727,1296
-0.0564,7605
-0.0524,6700
-0.0452,6813
-0.0207,5977
-0.132,8002
0.169,2245
-0.563,8334
-0.0371,6857
-0.116,9308
0.119,1553
-0.0298,6050
-0.232,9428
0.186,1122
0.0537,3328
-0.0932,8944
0.16,1305
0.0615,3341
0.0885,3712
-0.222,9691
-0.181,10355
-0.205,10223
-0.181,9613
-0.134,9320
-0.271,9392
0.104,1484
0.0416,3352
-0.0147,5356
-0.0948,8313
0.258,1157
0.362,31
0.0357,4348
0.0382,4090
0.0475,3371
0.0254,4331
0.0578,3646
-0.0107,5280
1.18,225
0.00018,5199
0.1,1448
0.237,1097
-0.16,5644
-0.00965,5105
0.0995,3608
-0.315,10329
0.0232,4238
-0.422,9943
0.487,77
-0.183,7766
0.0837,3188
0.273,72
-0.0489,6783
0.102,3286
-0.11,6656
-0.00547,5261
-0.0926,8414
0.0255,3632
0.0356,3149
0.0641,3875
0.177,2380
0.138,1887
0.0885,2937
0.187,2743
-0.101,9765
0.045,3807
-0.0217,5821
0.301,867
-0.0869,7792
0.22,2269
-0.0885,8785
-0.0304,5978
0.019,4367
-0.595,9324
0.165,1220
0.029,4181
0.188,1137
-0.329,10214
-0.0863,7204
0.19,1965
0.281,1427
0.119,1002
0.0975,1938
0.0814,3031
-0.238,10068
-0.0937,7373
-0.0113,5548
-0.00714,5754
0.0642,2683
-0.225,10043
-0.176,9369
0.0508,4432
0.234,1070
-0.0719,8248
-0.157,9889
-0.117,7285
-0.0879,7953
0.0494,3662
0.126,1318
-0.107,9064
-0.0688,5591
-0.0836,7469
-0.0583,6027
0.254,716
-0.131,8408
-0.0758,7279
-0.102,8085
0.047,4073
0.0472,2367
0.114,2555
-0.16,10077
-0.108,8284
-0.0133,5868
-0.0407,6203
0.0682,2260
0.0197,4573
0.0139,4985
-0.0103,5565
0.0912,1300
-0.149,8714
0.0271,4332
-0.226,9842
-0.122,8366
-0.0514,6110
-0.0168,5771
-0.426,10172
0.214,1950
0.224,533
0.207,1758
0.213,776
-0.184,10379
0.473,69
-0.148,7486
-0.0977,8434
-0.4,9836
0.0541,3410
-0.131,9899
-0.056,6790
-0.331,8217
0.421,221
-0.222,8935
0.0608,1134
0.0465,3625
0.105,2369
0.324,227
0.0512,3900
-0.127,8315
0.0906,1995
-0.165,9346
-0.173,9401
0.227,754
-0.0246,5862
-0.0163,5458
-0.0114,5717
0.139,2290
0.312,1043
0.885,593
-0.319,7897
0.265,2517
-0.0179,5638
-0.0888,9014
-0.107,8070
-0.143,7981
-0.026,6059
-0.0333,5855
0.00592,4775
0.114,3281
0.0392,3456
0.0615,3654
-0.0178,6048
0.0988,2105
0.0845,3018
-0.101,9204
0.0821,3121
-0.265,10213
-0.0772,7777
-0.119,5901
0.209,438
0.0726,3378
-0.962,10010
-0.148,7970
-0.127,8797
0.248,1350
0.136,1709
0.0273,4485
0.397,1146
0.0393,3905
-0.113,7449
-0.167,9962
0.0526,2461
-0.0491,7312
0.0777,2910
-0.0337,5849
-0.061,5176
-0.0388,7494
0.073,2579
-0.0411,7921
-0.0943,7153
0.352,637
-0.145,4842
0.111,3518
0.00205,5014
0.154,1669
0.14,2314
0.0215,4295
-0.129,7314
0.312,1006
-0.152,9098
-0.172,9191
0.114,2255
-0.0819,6902
-0.246,9895
-0.354,10259
0.0995,1290
0.0453,3148
0.247,331
-0.116,9367
-0.13,8514
0.226,664
0.0514,3553
0.0593,3880
0.204,618
0.211,744
-0.0168,5542
0.176,1375
0.0138,4392
0.206,1098
-0.3,9463
-0.0589,6625
-0.131,7709
0.193,2755
-0.198,9876
-0.0477,7974
-0.206,10335
0.0946,1302
-0.0524,6394
-0.0279,5972
0.0448,3277
0.0303,3893
-0.0237,4774
-0.252,7626
0.0165,4558
2.34,37
0.0894,2817
0.0731,671
-0.101,8603
-0.0207,5762
-0.081,6441
0.0547,2874
0.0973,2189
0.0698,3130
-0.0747,6966
-0.127,9109
0.0291,4464
-0.167,10246
-0.0678,7275
-0.0479,7743
-0.113,7603
-0.00921,4914
0.0846,2551
-0.227,10093
-0.161,8075
0.00405,4782
0.0547,3636
0.0837,3356
0.373,486
0.423,166
0.0534,2889
-0.104,8260
-0.0529,6928
0.283,1822
0.0301,4425
0.0873,3511
-0.0685,8145
-0.0971,7945
0.0313,4213
0.0923,2530
0.174,334
0.538,714
0.0585,2749
0.0288,3481
0.0783,3244
0.481,252
0.0181,4422
1.06,26
-0.0105,5527
0.0292,4491
-0.264,9318
-0.0888,7172
-0.152,4908
-0.0811,6290
0.0512,3317
0.223,269
-0.346,10267
-0.0518,6562
0.317,153
-0.194,8567
-0.0348,6661
-0.00996,5660
0.178,1626
0.184,634
0.101,2301
-0.155,7966
-0.0238,6093
-0.0717,7638
0.129,1347
-0.0299,5888
0.0261,3862
-0.215,10375
0.0231,4333
0.0758,2278
-0.114,7540
-0.217,9332
-0.174,10094
-0.257,9046
-0.157,10191
0.0488,3477
-0.144,8157
0.108,1207
-0.179,6849
0.184,1108
-0.0242,6091
0.137,978
-0.0781,4881
-0.115,7010
0.0616,3901
-0.0452,7568
0.0253,3777
-0.334,10428
-0.0524,6893
0.0808,3033
0.276,765
0.00168,5114
0.129,2410
-0.0377,6358
0.0328,3988
-0.148,7216
0.167,1312
-0.155,8033
-0.107,7945
0.453,1878
-0.35,9951
-0.077,6499
-0.139,7721
0.475,478
0.071,3790
-0.26,7337
0.188,1992
0.515,827
0.295,189
-0.00292,5325
0.0362,3524
0.0211,4415
0.0647,3202
0.138,2261
-0.0754,7132
-0.0637,7445
-0.193,9577
-0.311,8787
0.456,109
-0.0823,7762
0.331,70
-0.116,7498
0.0306,4484
-0.0286,5817
0.0982,1593
-0.0357,5820
0.0218,4117
-0.0177,5689
0.023,2837
-0.0576,5767
0.315,572
0.104,2930
-0.00209,4906
-0.0336,6640
-0.0299,6465
0.172,1264
0.0573,2752
0.0177,4471
0.127,2480
0.00377,5081
-0.102,8336
-0.0211,3580
-0.0556,6712
-0.326,10194
0.105,1642
0.152,1749
-0.00596,5300
0.142,1560
-0.132,7870
0.183,2430
-0.145,6776
-0.018,6211
-0.38,10460
-0.0557,7215
-0.194,8407
-0.304,9531
0.122,2897
-0.124,7742
-0.0969,7812
-0.0188,5718
0.0773,3489
-0.0568,7430
-0.143,8215
-0.0272,6014
-0.0886,6552
0.0671,3158
-0.0099,5279
0.106,2608
0.184,1375
0.0491,3428
-0.0238,6063
-0.0564,6580
-0.0902,6725
-0.138,8878
0.0856,2684
-0.0237,6464
-0.0785,7881
-0.0837,8354
0.123,2547
-0.013,5015
0.163,2278
-0.031,6583
-0.0421,7058
0.355,241
-0.154,8238
-0.0223,5547
-0.185,7750
-0.00383,4901
-0.191,9894
0.235,207
-0.0633,6953
0.132,937
-0.068,7404
0.269,221
0.017,4460
0.228,1723
-0.357,10390
-0.0893,7878
-0.393,10102
0.0548,3555
0.105,2415
-0.0665,6207
0.0639,2950
0.0665,3660
-0.466,10071
0.0901,2127
0.0588,3359
0.292,367
-0.14,9175
-0.0218,5871
0.32,909
-0.047,6702
0.0114,4610
-0.404,5797
-0.275,10055
-0.317,10274
-0.372,10415
-0.0735,7752
-0.154,8265
-0.0362,5940
-0.226,8697
-0.0164,5774
-0.0478,7934
0.044,3010
-0.111,9750
0.022,4284
0.0739,2187
-0.202,8901
0.568,269
0.158,642
-0.18,9900
0.152,1422
-0.0404,5982
-0.0729,6243
-0.0917,9774
-0.0543,7530
0.194,522
-0.28,7946
-0.0917,10116
0.0973,708
0.167,218
0.0447,3509
-0.137,5856
-0.183,9210
-0.0222,6989
0.124,96
0.51,2080
-1.31,10046
-0.0424,7418
-0.076,7966
-0.126,7594
-0.149,8982
-0.0354,5668
-0.0609,6458
-0.209,9834
0.275,210
0.115,2029
0.293,1041
-0.109,7887
0.00342,4868
-0.126,8453
-0.161,10340
0.000449,5123
-0.0338,5601
-0.213,8183
0.0942,2925
-0.366,10391
0.306,738
-0.0324,6941
0.0824,2320
0.0179,4495
-0.272,7966
0.249,1282
-0.0434,6616
0.008,4938
0.0397,3350
0.143,1039
-0.0613,6686
-0.294,9769
0.0332,4276
-0.128,9618
0.0963,2308
-0.114,8256
0.0219,4367
0.453,717
0.0636,2247
-0.0863,8319
0.318,257
0.0785,2622
-0.065,5726
-0.309,10434
0.00542,5045
-0.157,9465
-0.00561,5463
-0.0813,7198
-0.00344,5259
0.00826,4646
0.166,1136
0.0608,1760
0.148,1310
0.024,4451
-0.0336,5552
-0.0705,8192
0.047,2495
0.00166,5371
0.123,1536
-0.45,9212
-0.0558,7383
0.145,2278
-0.156,10248
0.0411,3324
0.0112,4660
-0.364,10415
0.144,1468
0.0014,5089
0.349,861
0.0468,3217
-0.306,9821
0.0126,4702
-0.0466,5845
0.164,3164
-0.0677,7817
-0.145,8284
-0.0122,5462
-0.116,8199
-0.154,9039
-0.0284,5992
0.0364,4003
-0.0135,6037
0.361,25
-0.12,8202
0.304,187
-0.164,9357
0.0957,839
0.0395,3389
0.115,1998
-0.262,9141
-0.158,8668
-0.12,9435
-0.155,9319
0.0438,3825
0.142,1625
0.573,281
-0.379,10270
-0.101,8199
-0.174,9379
1.62,351
-0.243,6376
-0.242,9770
-0.269,7427
-0.0381,6753
-0.39,10376
0.169,2290
0.194,804
-0.0799,8754
-0.0199,5922
-0.151,9192
0.109,3475
-0.0154,5445
0.474,129
-0.0952,8412
0.118,1088
-0.0376,6674
-0.203,7822
-0.307,9838
0.165,302
-0.0183,5585
0.0346,3802
0.101,2248
-0.268,8769
0.224,1043
0.0225,4325
0.207,673
0.451,25
-0.0388,6593
-0.126,8185
0.0965,2743
0.179,1769
0.0992,2619
-0.0925,7688
-0.189,4714
-0.151,9228
0.0612,3965
-0.135,6844
-0.00727,5339
-0.172,9873
-0.0424,7406
-0.167,8375
0.258,503
-0.0977,7478
0.0599,3860
-0.0687,6134
-0.128,9790
-0.218,9778
-0.142,6821
-0.176,9488
0.114,1171
-0.156,9659
0.0762,2514
0.0171,4760
-0.135,6590
0.473,1564
0.183,1636
0.00305,4924
-0.147,9141
-0.443,8679
-0.00851,5256
0.126,1235
0.0192,4201
0.0501,3935
-0.072,7766
0.735,229
0.466,1660
0.207,377
-0.117,9259
-0.0203,5686
0.373,61
-0.177,8855
0.0292,4539
-0.0178,6145
-0.181,8915
0.111,2157
-0.0849,7981
-0.353,9761
-0.0483,6609
-1.15e-05,5072
-0.0543,7235
-0.00767,5276
-0.11,8144
0.108,2678
0.0723,3791
-0.0411,6290
-0.0819,7775
-0.0842,7418
0.0736,2443
-0.188,8523
-0.0493,6375
0.0443,3544
0.0934,2287
0.191,1810
-0.0635,6863
0.0311,4112
-0.0598,6822
-0.0224,5966
-0.165,10243
-0.0769,6325
-0.246,6301
-0.0938,5940
0.128,3373
-0.0787,8469
-0.0395,6712
0.253,654
0.268,439
0.00887,4777
-0.0353,5356
-0.013,5844
-0.201,9790
-0.0662,6792
0.061,2923
-0.136,8458
0.0334,3888
-0.0636,7353
0.264,512
-0.32,10355
-0.218,8686
-0.228,9715
0.088,2871
-0.125,9643
0.0704,1220
0.0826,3605
-0.0334,6276
0.0131,4560
0.453,365
-0.225,10023
-0.0769,6649
-0.271,10362
0.149,873
0.0346,4211
-0.18,10305
-0.0257,6804
-0.381,9312
0.0914,2014
-0.0478,5766
0.0996,2322
-0.0394,7044
0.0761,1597
0.0942,2262
0.0474,3486
0.0786,2714
-0.115,6351
-0.14,9762
0.0254,3931
-0.0898,8641
0.109,2894
0.565,927
-0.28,9304
-0.142,7494
0.0258,3968
-0.141,8369
0.0413,3355
-0.00119,4793
-0.357,10314
-0.2,9917
-0.0794,9087
-0.18,9561
0.368,151
-0.0636,7187
0.0152,4578
0.0102,4683
0.127,1039
-0.0694,6046
0.0238,4427
-0.213,9167
0.0362,4364
-0.339,10414
-0.0727,7025
-0.168,5728
0.267,1985
0.335,2854
0.246,2462
-0.113,7574
-0.105,8792
0.0847,2356
0.271,162
-0.0687,6029
-0.265,8018
0.128,1626
0.0939,3679
-0.217,8770
-0.0555,6064
0.239,875
-0.0724,6129
0.0474,3050
0.0319,3892
-0.08,7355
-0.436,6483
0.117,2167
0.066,2854
0.306,341
0.0212,4393
-0.0426,5738
0.0562,3708
1.33,34
-0.134,7509
-0.0998,8721
0.0608,2314
-0.0469,6523
0.00149,4839
-0.426,9682
0.141,1308
-0.0883,8304
0.0122,4543
0.061,3089
0.193,1684
0.146,1469
0.109,1847
-0.11,9230
4.62e-05,4992
0.085,2779
-0.0286,5873
0.061,1906
0.295,198
-0.076,8964
-0.16,9471
0.0472,3695
0.12,2113
-0.0318,5712
0.0928,2686
0.0988,772
0.0124,4485
-0.0144,5640
-0.0689,7439
-0.3,8110
0.0537,3820
-0.0531,7448
-0.127,9364
-0.0616,7045
-0.142,7350
-0.125,9808
-0.0909,6347
-0.0293,6856
0.085,758
0.451,573
-0.254,9561
0.568,22
-0.0433,6113
0.136,1915
-0.21,10427
-0.0102,5449
0.254,551
-0.0374,5629
-0.00386,5277
0.16,134
0.236,1540
0.387,1072
0.17,1061
-0.0663,6011
0.618,983
0.0725,2724
-0.0918,8255
0.234,1351
-0.211,7745
-0.0866,6738
-0.1,7978
0.119,361
-0.0498,6526
-0.117,8508
-0.323,8478
-0.261,10331
-0.195,9643
-0.137,9837
-0.134,6798
0.131,2369
0.0815,2208
-0.137,8713
-0.0328,7451
0.0546,2946
0.197,1261
-0.0923,8237
-0.0552,6226
0.0414,4049
0.00396,4944
0.509,42
-0.0375,5344
0.288,2777
-0.121,7569
-0.2,5517
0.323,1058
0.202,1066
0.0673,2637
0.0672,3176
0.0339,3596
-0.0704,7799
-0.106,8693
-0.0246,6137
0.0384,4089
-0.12,8679
-0.0423,6734
0.134,1709
-0.213,9372
0.0235,4572
-0.043,6100
-0.0382,7687
0.0717,1898
0.0462,3405
-0.101,7649
-0.0928,7113
-0.0527,7095
0.0345,3658
-0.138,8476
-0.0168,5745
-0.293,9666
0.212,858
0.0553,3672
-0.173,10043
-0.0658,7358
0.0484,3814
-0.0124,5534
0.174,1928
-0.0264,6217
-0.0122,5252
0.0305,4306
-0.00113,4838
0.238,635
0.204,1596
-0.0802,6668
0.109,2572
-0.0947,9672
0.33,597
-0.119,9663
0.0974,2574
-0.0309,5343
0.0495,3094
0.038,3343
0.177,1245
-0.0867,6624
0.124,3220
0.0997,3690
-0.0888,7715
-0.0746,7820
-0.126,10269
-0.0304,5777
0.0433,3967
-0.173,8379
0.0247,4560
-0.0539,7420
-0.0608,7376
0.0879,1690
-0.0155,5503
0.143,635
-0.0663,7087
-0.0276,5860
-0.0613,7113
0.126,1424
-0.0412,6425
-0.065,7823
-0.0491,7885
-0.0144,5507
0.0467,3594
-0.106,7981
0.133,1831
-0.131,9358
0.299,696
-0.031,6492
0.0203,4581
0.184,1051
0.203,2006
0.0486,3822
-0.189,8711
0.0926,2128
-0.108,8653
0.182,2199
-0.152,7668
0.0187,4177
0.215,1216
0.0149,4808
-0.0416,6501
-0.296,9921
0.255,68
-0.109,6230
0.133,3474
0.0281,4397
-0.287,9363
0.383,394
-0.0739,7314
0.0743,3049
0.000892,5277
0.0406,3907
-0.231,9850
-0.0686,6657
0.0464,3958
-0.212,9610
-0.0245,6040
-0.00701,5358
0.147,1153
-0.16,9511
0.264,232
0.13,1247
-0.0311,6580
0.0777,3733
-0.122,7595
-0.0451,6530
0.314,461
-0.0612,8401
0.216,602
-0.0111,5333
-0.0244,5908
-0.0823,7676
0.489,23
0.265,940
0.0305,4055
0.0823,1472
0.321,176
0.0413,3933
0.206,1177
0.149,1824
0.174,1232
0.115,2626
-0.175,9744
-0.187,8333
0.634,756
0.0485,3019
-0.00291,5345
0.0716,3019
0.198,924
-0.0446,6775
-0.478,9843
0.0496,2561
-0.11,9255
-0.0961,7525
-0.0279,5738
0.23,2087
-0.00627,5307
0.0799,2902
-0.00697,5392
0.16,1494
-0.18,9341
0.0111,4885
0.392,1585
-0.0827,7131
0.00136,4952
-0.139,8110
-0.0442,5834
-0.134,8404
-0.212,8350
0.0438,2795
0.023,4273
-0.187,9998
-0.0808,7685
-0.0345,6027
0.108,3319
-0.105,8706
0.104,2664
-0.255,7120
-0.116,8916
-0.0402,6354
0.149,691
0.0495,2927
-0.0183,6121
-0.176,9036
0.246,135
0.123,2160
-0.0797,7328
-0.112,9514
0.0282,3288
0.122,1391
-0.04,6214
0.068,3393
0.182,1579
-0.113,8071
0.114,1045
-0.13,8230
-0.408,10212
0.172,1236
-0.0678,6885
0.0553,2714
-0.115,8511
0.196,1342
-0.185,9687
0.0409,4303
-0.0651,6431
-0.0719,9715
-0.0624,7587
-0.0119,5146
-0.237,9731
0.281,2054
0.31,584
0.0551,3239
0.0176,4124
0.0856,2110
-0.311,10361
-0.299,7963
-0.0433,6041
0.0648,2186
-0.0347,7047
-0.355,9256
-0.0265,6200
-0.24,10138
-0.191,8507
0.12,1382
0.0246,4041
-0.0378,5968
-0.164,7866
-0.0133,5444
0.0302,4446
-0.238,10388
0.181,757
-0.246,10310
-0.24,9918
0.0582,2876
-0.0978,5557
-0.0832,9058
-0.0182,6924
0.102,3068
0.105,2177
-0.245,7345
-0.00573,5394
-0.0197,6263
0.0519,3224
0.105,3307
0.128,2716
-0.294,9519
-0.188,7619
-0.0484,6870
-0.0309,5685
0.0111,4703
0.259,111
-0.148,9608
-0.104,7154
-0.0131,5534
-0.0259,6015
-0.214,9679
0.126,1701
0.307,2665
0.357,1382
0.0469,3770
-0.113,8416
0.0127,4657
-0.0798,6332
0.183,1112
0.0852,3866
-0.14,8953
0.021,4388
-0.057,6200
0.697,980
0.0205,4579
-0.337,9242
0.00527,4777
0.0925,2600
-0.0068,5458
-0.246,9630
-0.0433,6833
0.192,1962
-0.119,9185
0.0105,4680
-0.17,8831
-0.128,8002
0.203,848
0.515,139
-0.0615,8420
-0.326,10290
0.0251,4560
-0.0927,7495
-0.112,6464
0.182,1479
0.0515,2856
0.0106,4488
-0.132,8356
-0.00768,5202
0.587,116
-0.108,7757
-0.0643,7535
0.188,1025
0.0507,4141
-0.134,8216
-0.117,9791
-0.143,7581
-0.225,10431
0.00346,5022
0.0256,3974
-0.0861,8900
-0.102,8045
-0.0414,6248
-0.337,10234
-0.0111,5797
-0.041,6973
0.36,626
0.0105,4867
-0.143,6872
-0.439,9472
0.00631,4724
-0.0636,8230
0.036,4492
0.128,994
-0.349,10293
0.0123,4667
0.138,599
-0.0866,9955
1.31,306
-0.339,6668
0.175,2660
0.125,2963
0.14,3445
-0.114,9844
-0.0971,7553
0.102,2784
0.0429,3497
0.0584,1798
0.0483,2969
-0.0493,6681
0.0587,3539
-0.111,7348
0.07,2969
0.0226,4255
0.0622,2371
0.0854,2303
0.229,1258
-0.093,6996
0.273,951
0.225,449
-0.0605,5577
-0.0796,6516
-0.0958,7905
-0.164,8635
0.0665,4257
-0.0892,7362
-0.04,6850
0.0723,2444
1.85,243
0.156,3402
-0.592,10143
0.00354,4963
-0.0716,8017
0.0762,2957
-0.242,5574
0.131,3394
0.882,1553
-0.0857,3603
-0.124,8933
-0.729,8404
-0.322,8811
-0.0516,4833
0.0928,2441
-0.33,5982
0.138,1616
-0.0461,6804
-0.0585,6819
0.123,2055
0.196,507
-0.0498,7157
0.0155,4639
-0.272,10077
-0.0293,7005
-0.112,5461
0.255,525
0.0573,3375
-0.0364,6964
-0.207,8806
-0.173,10290
-0.148,9306
-0.269,9744
0.292,745
0.0138,4755
-0.105,8393
-0.118,8765
-0.148,9121
-0.0249,6508
0.0178,4200
-0.342,9864
0.12,2967
-0.284,8258
0.263,366
0.06,4122
-0.0532,8420
-0.146,5753
-0.269,7594
0.662,117
0.138,2111
0.114,1903
0.2,1000
-0.0728,7241
0.0429,3773
0.0191,4316
0.117,1952
0.0206,4000
0.0824,2421
0.0758,3214
-0.104,7380
0.0227,4331
0.266,1312
-0.101,9736
-0.0808,9306
0.399,1350
-0.372,8319
-0.2,5703
0.0196,4494
0.368,708
-0.0326,5839
-0.232,9554
-0.0314,5807
-0.134,9260
-0.0366,6760
-0.0565,7638
-0.129,6662
0.211,635
-0.194,4835
-0.321,9970
0.0441,3072
0.0149,4491
0.0212,4596
-0.0287,5928
0.0453,4153
-0.281,8903
-0.0452,7431
-0.0123,5377
-0.104,7903
0.136,1979
0.21,726
-0.0221,5942
0.0159,4134
0.00759,4561
0.129,3218
-0.181,8472
-0.0339,5937
-0.231,8453
-0.0698,8321
-0.169,8566
-0.27,8241
0.241,259
0.146,2965
0.0752,2213
-0.312,9773
0.00614,4805
-0.169,8579
0.00138,5150
0.0545,3606
-0.197,10372
0.0379,3984
-0.0339,7326
0.0871,2610
0.121,2008
-0.197,9349
0.202,2711
0.00581,4675
0.00654,4678
-0.0398,6189
0.0308,3746
0.038,3965
0.154,2463
-0.0105,5411
0.0904,448
-0.297,6586
-0.221,8077
-0.193,6702
0.128,3300
-0.0639,5986
-0.348,8608
0.041,3970
-0.149,8706
0.0749,2387
0.179,961
0.0329,2956
-0.105,9578
-0.151,9377
0.0805,2826
-0.14,7632
0.24,220
-0.363,9791
-0.027,5959
-0.196,9688
-0.0598,6277
0.154,1126
0.0551,3943
-0.0221,6512
-0.259,10266
-0.229,10043
0.323,663
-0.327,10269
0.0401,3963
-0.00112,4921
-0.162,9062
-0.104,7016
0.0885,2339
0.0349,4166
0.368,19
-0.38,10194
-0.196,10387
-0.0427,6586
-0.0807,7384
-0.144,7759
-0.469,9721
-0.00829,5434
-0.0793,7294
-0.0692,8099
0.0586,3415
0.238,1042
-0.0645,7285
0.0146,4496
-0.0969,9230
-0.134,7451
-0.141,8408
0.0155,4685
-0.128,7973
-0.117,8979
-0.0216,5692
-0.213,8949
0.189,886
0.439,229
-0.0237,5887
-0.179,9300
-0.113,9260
0.108,3179
-0.0521,6221
-0.0779,6827
-0.185,9283
-0.0568,6535
0.112,972
0.116,2358
0.499,394
-0.137,6495
-0.202,9771
0.227,1362
-0.31,10406
0.209,85
-0.0751,6568
0.0558,2533
-0.0317,6329
-0.102,8130
0.38,67
0.608,35
-0.0444,5554
0.164,2083
0.0324,3515
-0.0876,8299
0.606,1377
-0.0704,6298
0.193,2418
0.119,1073
-0.172,9704
0.0373,2864
-0.0719,8790
0.0832,2517
0.194,1846
-0.00785,5070
-0.112,8663
0.138,1254
0.0547,3557
-0.194,10192
-0.201,8699
0.0323,3720
-0.123,8938
-0.0622,7943
0.531,166
-0.102,9348
0.0799,3327
-0.0839,6359
0.452,561
0.0176,4208
0.0706,2384
0.242,497
-0.167,9579
-0.184,8106
0.231,283
-0.0144,6167
-0.0957,7915
-0.105,7529
0.11,1152
0.156,1217
0.0588,2807
0.0828,1064
0.0775,2489
-0.0511,6389
-0.256,8600
0.0899,3810
-0.0765,7891
0.0646,2159
0.108,2905
-0.0564,6925
-0.00243,5046
-0.379,8603
-0.0475,6428
0.0488,3544
-0.00294,5180
-0.0195,5588
-0.263,8939
-0.0442,6870
0.015,4457
-0.0181,5552
-0.13,7705
0.0609,3338
0.133,2838
-0.277,8412
-0.0146,5676
0.0533,1564
0.0057,4935
-0.37,9934
0.113,1554
0.0949,2849
-0.0366,6821
-0.0382,6668
-0.274,8152
-0.0128,5438
-0.189,7627
-0.301,10189
0.0419,3820
-0.0692,8936
0.128,1391
-0.0411,6645
-0.0432,6149
-0.0463,7273
0.0477,3048
-0.0697,8481
-0.0314,5484
0.109,2486
0.154,1290
0.103,2293
-0.0979,4962
0.147,588
-0.0946,7730
0.291,127
0.0266,4318
-0.16,9809
0.0376,3915
0.0665,3523
-0.0513,5766
0.302,321
-0.0274,5823
0.505,105
-0.0322,6609
0.272,411
-0.00729,5584
0.309,102
0.0301,3841
-0.434,7210
-0.0653,9794
0.0983,1260
-0.0677,7862
0.166,1088
0.188,1893
-0.0644,7082
-0.108,7984
0.00518,4689
0.00921,4730
0.0607,3393
0.288,188
-0.164,6624
-0.118,7838
-0.0608,7107
-0.376,8478
-0.0836,7446
-0.0848,6660
-0.0767,7394
-0.019,5961
-0.0335,6277
-0.0897,8228
-0.101,7734
0.175,1926
-0.138,9167
0.385,430
-0.187,9123
-0.232,10348
-0.0486,6222
0.0466,3601
-0.0652,8497
-0.0152,5906
0.138,1966
0.423,117
0.115,3134
-0.264,9204
-0.162,7560
-0.00411,5268
-0.00274,5395
-0.124,8808
0.267,496
0.343,2048
0.115,2681
0.119,583
-0.153,9002
-0.196,8984
0.0605,3694
-0.111,5469
-0.29,10317
0.0837,2109
-0.0609,8275
-0.0583,5831
0.00503,4620
-0.323,7738
0.301,842
-0.0958,7602
0.471,398
0.0695,2772
0.053,3962
-0.0886,8449
0.0181,4593
-0.0239,6626
-0.104,9361
-0.0409,6263
-0.0484,6365
0.229,1560
-0.271,8710
-0.242,10330
0.133,940
-0.0487,7329
0.0269,3625
0.145,2250
-0.12,8522
0.0335,2641
0.243,890
0.344,843
-0.025,5766
-0.14,8700
0.16,1538
-0.137,8675
-0.0367,8966
-0.251,9369
0.289,672
0.372,716
-0.107,8455
-0.013,5943
-0.098,7026
-0.217,7861
0.135,1770
-0.0871,7156
-0.135,9199
-0.00656,5307
-0.291,10319
0.0353,3845
-0.173,9212
0.122,2344
0.158,617
0.00953,4801
-0.0519,8724
-0.162,7831
0.104,1749
0.275,1770
-0.0416,6766
-0.164,9909
0.0016,5127
0.211,312
-0.0132,5304
0.209,333
0.0913,3168
0.066,1022
0.126,1462
-0.211,9517
0.246,663
0.0937,2798
0.0569,3329
-0.117,9577
-0.0861,8763
-0.185,8853
0.628,8
0.00532,4505
0.00656,4717
-0.0253,6557
-0.0449,6864
-0.0645,6132
0.0222,4313
0.039,4400
-0.0337,5976
0.16,1111
0.0162,4042
0.0821,3223
-0.0743,7003
0.00596,4865
-0.021,5545
0.214,772
-0.0266,5942
-0.251,9612
-0.229,7866
-0.262,9778
-0.224,9550
-0.0338,6585
0.263,263
-0.00501,3100
-0.0713,7165
-0.0055,5186
0.0156,4648
-0.0107,6344
0.00464,4810
0.0946,3183
0.179,1042
-0.0372,6482
0.0726,2965
0.00879,4496
-0.0255,6054
-0.0858,7066
0.0608,3551
0.354,243
-0.0874,7768
-0.0199,6379
0.0559,2940
-0.032,5719
-0.233,9242
-0.0436,6773
-0.243,9205
-0.11,8973
-0.124,9268
-0.0891,6443
-0.0403,5796
0.41,2170
0.0512,3944
-0.15,9524
0.177,1078
-0.137,7804
-0.0944,7013
-0.0373,6756
-0.134,7452
-0.167,10082
-0.0226,6096
-0.15,7325
0.016,4662
0.149,409
0.28,1673
-0.138,8238
0.083,2387
0.896,175
0.337,49
-0.203,4872
0.228,2323
-0.0909,9122
-0.258,4673
-0.143,8341
-0.18,7049
-0.188,10291
-0.0841,8159
-0.0935,8366
-0.347,8679
-0.242,9256
-0.0604,4495
0.0481,4364
-0.125,7207
0.128,2292
-0.266,9964
-0.266,9759
-0.0709,5642
-0.143,8622
-0.0698,8646
-0.000581,4980
0.057,4054
0.305,2422
0.422,1150
0.0253,4170
0.0431,4036
-0.129,9449
0.137,2682
-0.183,9333
0.0886,3930
-0.235,7646
0.0382,3297
0.171,884
-0.164,8413
-0.152,10170
0.00702,4600
-0.15,9223
-0.12,9853
-0.3,10432
-0.237,6008
-0.107,7599
-0.246,7199
-0.0256,5063
0.0413,3602
-0.0764,8911
0.0539,3342
0.0849,2225
-0.182,5746
-0.16,9696
0.0615,3261
-0.038,6888
-0.00431,5074
-0.15,8760
0.237,857
-0.0488,6722
0.224,368
-0.0141,5846
0.106,2172
-0.314,10145
0.289,1278
0.148,1958
-0.00717,5238
0.0345,2874
-0.187,9785
-0.164,5759
-0.172,8478
0.148,1485
0.0118,4431
-0.0219,6628
-0.242,9259
-0.0959,7357
-0.108,8505
0.121,2581
0.235,1355
0.265,67
-0.275,9519
-0.159,9462
-0.104,7451
-0.107,7225
0.318,129
-0.179,9582
0.00886,5226
-0.00645,5595
-0.141,7943
-0.145,8410
0.0517,2716
0.153,2162
0.0968,3162
0.0707,3794
-0.225,7847
0.125,2554
-0.18,10048
0.11,2835
0.0501,3693
-0.243,9378
0.157,1522
-0.178,5688
0.000763,4973
-0.00485,4751
0.128,2342
0.211,2142
0.056,4017
0.097,2007
0.00477,4958
0.00746,5045
-0.0093,5451
-0.125,8761
-0.0892,6972
-0.267,9992
-0.0909,8861
-0.0156,5729
-0.0456,6398
-0.0866,8681
-0.0499,5775
0.128,2118
0.123,814
-0.0571,7315
-0.203,10076
0.189,1244
-0.23,8655
-0.166,9313
0.00837,4729
-0.0457,6602
-0.0647,7643
-0.12,8446
0.0457,3926
0.427,809
0.0854,2488
0.0982,1123
0.0101,4596
0.148,3060
-0.0192,5763
0.324,77
0.0908,2336
-0.181,8441
-0.221,9752
0.0435,2402
-0.0585,6548
-0.158,10227
0.0717,1905
-0.104,10054
0.0431,2544
0.051,3018
-0.0473,7308
0.0269,3999
0.0697,3369
-0.0604,6862
-0.0176,5792
-0.08,7699
0.0831,2696
0.0729,3116
0.0974,2308
-0.0759,9073
0.441,976
0.204,948
0.0222,4142
0.105,2427
-0.398,9531
0.0342,4198
-0.0379,5912
0.237,343
0.000871,4940
-0.345,6908
-0.0858,8068
-0.152,7985
0.205,335
0.0346,3911
-0.213,7418
0.0422,3675
-0.111,8150
-0.0764,6791
-0.0487,6160
-0.0265,5757
0.245,728
0.102,2366
-0.0716,7137
0.0842,1105
-0.146,8401
-0.0558,5620
-0.236,7701
-0.476,9546
-0.122,8865
0.0268,3947
0.413,68
-0.0827,7858
-0.0134,4994
-0.0364,5168
-0.0625,7377
-0.104,8343
-0.000567,5380
0.0619,3926
0.027,4178
0.121,2559
-0.0209,5974
0.121,500
0.0697,3801
0.0272,4207
0.348,185
0.00821,4957
-0.0137,5734
0.102,2907
0.102,3534
0.0662,2701
0.26,1076
-0.134,9358
-0.0362,6954
-0.0924,7266
-0.0105,5223
-0.282,9978
0.418,531
0.903,243
-0.125,9861
-0.172,10313
-0.181,9708
-0.101,6917
-0.0722,6448
1.19,8
-0.074,7932
0.366,135
0.189,827
0.0186,4702
0.0447,3472
-0.0837,7817
0.0422,3889
-0.00721,5246
0.145,1606
-0.0412,6479
-0.0588,6086
0.31,1218
0.158,752
-0.0398,7743
-0.0409,6602
0.14,2316
0.185,1332
-0.232,5857
0.0466,3554
0.142,1380
0.171,1315
0.397,762
0.66,53
-0.085,6457
-0.0516,9139
0.046,3771
0.0112,4954
0.124,2107
-0.00673,5538
0.0708,1702
-0.104,8760
-0.0598,7591
-0.237,8961
-0.103,7301
-0.0756,6136
-0.0956,6143
-0.0302,6532
-0.0492,7200
0.342,649
0.192,647
0.19,1877
-0.0336,5760
0.0382,3502
-0.155,9860
0.127,2032
0.304,575
-0.0502,6397
-0.0676,7769
0.162,1494
-0.0659,6976
-0.0346,5345
-0.234,6867
0.452,423
0.0217,3641
-0.0149,5480
0.312,229
-0.0419,5899
-0.336,9847
0.0292,4220
-0.00161,5377
-0.197,9596
0.27,1317
0.238,1017
-0.0811,6762
-0.11,8929
-0.0789,8879
-0.129,9523
-0.223,9373
0.0197,4246
0.0275,4026
-0.177,6301
0.0654,2250
-0.0302,6256
0.243,494
0.00746,4782
-0.0448,6470
0.217,2387
-0.318,9582
-0.187,10080
-0.0844,5716
0.0428,3544
0.704,266
0.251,923
0.00125,5109
-0.0676,6376
0.0157,4504
-0.0904,6971
-0.215,8293
-0.149,5144
0.0185,4043
0.0991,1387
-0.206,9372
-0.111,6856
0.141,3228
0.0241,4090
-0.131,10081
-0.061,7841
0.142,1258
-0.00419,4719
-0.0107,2749
-0.037,6439
-0.0265,5895
0.0983,2826
-0.0388,6488
0.522,106
-0.177,9538
0.103,2030
-0.113,7886
-0.091,7471
-0.0561,5824
0.0422,3057
0.0769,2440
-0.13,8553
0.0646,3170
-0.273,10127
-0.0902,7315
0.121,2168
-0.265,8882
-0.0667,6295
0.121,1300
-0.341,8658
0.339,210
-0.104,9136
-0.194,9127
0.0358,3935
-0.0339,7434
0.154,274
0.054,3988
-0.0076,5157
0.0117,4688
-0.00617,5227
0.01,4959
-0.00738,5232
0.0691,3130
-0.0993,5259
-0.425,7912
-0.0449,5642
0.0894,2795
-0.153,7946
0.799,349
-0.116,8042
-0.0575,6225
-0.0393,6768
-0.0102,6126
-0.217,8849
0.0507,3653
0.352,2048
0.166,591
0.0482,3450
0.0803,2088
0.15,1862
-0.084,6537
-0.372,10424
-0.111,8179
-0.0263,6465
-0.00477,5181
-0.0957,6536
-0.0146,5221
-0.0153,5413
0.102,3675
0.2,1739
-0.0248,6252
0.212,1174
-0.0488,6396
0.604,788
-0.184,9304
-0.159,10090
-0.0217,6392
0.21,110
0.13,1021
0.00744,4876
0.242,504
0.0761,2309
0.163,1029
0.0169,4498
-0.484,10178
-0.294,8135
0.0445,3601
-0.0439,6393
0.269,282
0.0044,5015
0.012,4724
-0.0147,5801
0.458,505
0.0273,4056
-0.0348,6605
-0.249,9586
-0.0521,7696
-0.19,8609
-0.0452,5630
-0.00109,5108
0.0586,2108
0.0661,3169
0.00374,5018
-0.28,9898
0.0728,3349
0.039,2895
-0.0542,7900
0.00013,5221
0.196,1479
0.283,2336
0.106,2777
-0.103,9094
0.017,4314
-0.218,4764
-0.288,8091
-0.149,8806
0.412,1606
-0.064,6855
0.0321,3641
-0.121,5205
0.0498,3418
0.728,49
-0.00162,5306
0.0664,2225
-0.157,9181
0.00859,4777
0.0914,860
0.0954,3543
-0.183,9247
-0.209,9289
-0.00407,5367
0.0613,3477
-0.0433,5761
0.0465,3565
0.584,442
0.0392,3884
-0.0638,7556
-0.0875,7482
0.433,154
-0.0338,5853
0.0591,4077
-0.122,9147
-0.0949,8357
-0.574,9165
-0.436,6792
0.00693,4916
0.0568,3987
-0.311,9847
0.307,1181
-0.0541,5627
-0.0796,7796
0.0581,2881
0.359,854
-0.103,7116
-0.0629,5138
-0.482,9925
-0.00801,5704
-0.0947,9009
-0.199,9135
-0.089,7942
-0.0367,6247
-0.135,8884
0.0483,2626
-0.0292,6346
-0.131,7857
0.0637,4132
-0.188,8230
-0.0886,7633
-0.147,9507
0.00802,4274
-0.0626,6403
-0.0344,5932
-0.0607,6621
-0.0546,6081
-0.0974,7627
-0.0347,6525
-0.418,8466
-0.354,9921
-0.0462,6721
-0.23,9405
0.0467,3363
0.166,336
-0.652,7999
-0.449,10306
-0.107,6802
-0.0401,7877
0.0749,1495
-0.0506,7984
0.0391,2750
-0.204,5902
-0.262,8678
-0.0948,7255
0.0286,4264
-0.271,5668
-0.298,7992
-0.214,4286
-0.599,10154
-0.473,6702
0.0682,3216
-0.277,8997
-0.124,9551
-0.0531,7998
2.26,132
-0.196,6757
-0.131,5145
0.879,796
-0.114,6997
-0.0768,8144
0.371,556
-0.0286,5638
-0.00252,4956
0.0343,3737
0.0407,3688
0.0075,5247
-0.0701,7195
0.31,582
-0.00382,5187
0.0422,2698
0.204,839
0.164,1480
-0.117,9038
-0.0735,7613
0.0148,4667
0.0165,4392
0.0501,2638
-0.323,5320
-0.373,8833
-0.0879,6073
-0.0592,6174
0.308,263
-0.0813,7158
0.219,3012
-0.0368,5627
0.212,1033
-0.293,9728
-0.096,9662
-0.374,10009
-0.521,8415
-0.19,7656
0.0377,2701
-0.01,6547
0.133,2402
-0.115,7974
0.0776,3337
0.123,1718
-0.144,9420
0.254,855
-0.102,7633
0.439,428
0.107,2128
0.522,131
-0.0714,6963
0.0872,919
0.0886,3692
-0.0568,6343
-0.173,6819
0.0239,4081
0.0527,2914
-0.0478,6210
-0.113,8404
0.0426,3735
-0.0403,5619
0.0419,4149
0.383,812
0.0706,1929
0.174,2089
0.106,3052
-0.0529,6558
-0.0033,5214
-0.0342,6867
0.106,1515
-0.29,7143
0.163,2724
0.169,579
-0.16,7786
-0.00482,5261
0.1,3173
0.191,2062
0.368,369
-0.249,9533
0.0799,3128
0.107,1874
0.289,2411
-0.265,9297
0.212,1600
0.12,2205
0.00956,4412
0.141,469
0.116,2323
0.177,3304
0.0771,3317
0.101,3344
0.204,60
-0.0624,7137
0.151,715
0.0261,4076
0.892,205
0.186,1205
0.229,470
-0.035,5565
-0.0156,6154
-0.135,9523
-0.173,10045
-0.0408,5695
0.0667,3664
0.103,1609
-0.112,9175
0.11,1716
-0.102,8106
-0.197,9641
0.235,445
0.155,400
-0.0612,6930
-0.165,8713
0.138,2045
0.274,650
-0.000438,4970
0.0772,2847
-0.095,9560
0.082,2399
0.265,388
-0.0358,6999
-0.16,9164
-0.164,10193
0.115,3128
-0.106,7824
-0.00748,5673
-0.195,6586
0.157,409
-0.0189,5576
0.0564,3281
-0.263,8448
0.258,1193
-0.23,9366
0.0468,3598
0.0826,2054
-0.0643,7063
0.382,15
0.0678,3112
-0.0617,6352
0.02,4101
0.0141,4649
-0.106,6323
-0.133,9285
-0.0139,5364
0.0156,4495
0.078,3354
0.13,563
-0.23,10210
-0.0282,5644
-0.154,10000
-0.179,8059
-0.0679,7361
0.00379,4959
0.143,2646
-0.0669,6169
-0.436,9623
-0.0861,8199
0.212,1683
-0.215,9854
-0.133,7914
-0.219,8664
0.0482,3978
-0.0651,6976
-0.103,9147
-0.11,8894
0.107,2523
-0.081,8008
0.0122,4674
0.0181,4482
-0.0428,6332
-0.094,7561
0.293,2442
-0.0674,7571
0.00255,4944
0.0809,2267
0.289,362
-0.071,6806
-0.105,7916
0.00367,4748
-0.107,7665
0.0243,4254
-0.0921,9817
-0.0529,8818
-0.202,9489
0.0942,2684
-0.261,10175
-0.191,8105
0.0448,3666
-0.13,8379
0.0244,4317
-0.146,8102
0.0812,2460
-0.0841,7229
0.0385,3553
-0.164,9375
-0.221,9413
0.0863,3315
0.0116,4636
-0.159,8091
-0.0816,6343
0.0538,2500
-0.0224,5221
-0.0525,4285
-0.0367,5965
-0.0773,7511
0.0665,1371
-0.0791,9584
-0.0497,5323
0.0142,4666
0.0268,4532
-0.0772,8093
-0.0446,7370
-0.144,9408
0.158,1479
0.292,1760
0.0638,2452
0.264,1244
0.0469,3253
0.116,554
0.0714,3264
0.123,1976
0.0698,3963
0.0289,3858
0.113,2894
-0.0709,7469
0.104,2618
0.111,1888
0.0693,4084
-0.187,8227
-0.114,8741
-0.0688,7030
0.103,2366
0.41,124
0.621,83
0.296,603
-0.102,8807
-0.106,9368
-0.0873,6556
-0.123,8145
-0.206,10004
-0.134,9259
0.00396,4784
-0.19,9940
0.0543,3050
0.000846,4982
0.317,299
-0.109,7263
-0.131,9382
0.265,271
-0.0441,6480
-0.111,8633
-0.384,9871
-0.0308,5055
-0.168,9835
-0.184,10331
0.063,2944
0.0173,4477
0.489,259
-0.0861,7741
0.0513,3343
-0.049,8495
0.0737,3757
0.133,1951
0.26,1559
0.0984,1919
0.0932,2107
-0.0148,5502
-0.028,5780
0.0435,3907
0.642,55
-0.113,6175
-0.0694,7178
0.0457,3557
-0.0412,5576
0.269,95
0.0502,3865
0.172,1112
0.111,827
-0.0215,6174
-0.116,8267
-0.0604,7493
-0.161,9095
-0.13,8774
-0.0345,6650
0.112,1812
-0.0123,5736
-0.0798,8080
-0.157,8026
0.121,1143
0.08,2676
-0.0799,6886
-0.137,9370
0.2,2650
-0.0275,5202
-0.00983,5932
-0.109,8942
0.0112,4634
-0.0563,6422
-0.28,7593
0.0294,4151
0.0423,2776
-0.0667,7845
0.182,1237
-0.0499,7423
-0.192,10303
1.17,6
0.0319,3628
-0.353,10331
-0.0683,7290
-0.0128,5279
-0.21,8566
-0.361,8716
0.0574,1971
0.207,237
-0.000403,4891
0.157,1657
-0.174,8048
-0.0505,7325
0.0471,3075
-0.03,6176
0.0117,4848
0.174,1393
-0.234,9061
0.219,2543
-0.0403,5711
-0.0958,7399
0.179,2551
0.0602,3102
0.115,2314
-0.169,6558
-0.149,7925
0.416,163
-0.237,7228
-0.249,10279
0.145,2359
0.127,2896
0.0642,2909
-0.12,7442
0.0474,3715
-0.0462,6088
0.131,2248
-0.203,8921
0.199,1298
0.17,1593
-0.248,8932
-0.0167,5452
0.137,2548
-0.101,6874
-0.145,9675
0.131,754
0.0456,3197
-0.0924,6812
-0.0761,8492
0.0661,3351
0.163,2318
0.0145,4509
0.126,3370
0.302,708
-0.0381,5905
0.231,1327
0.101,733
0.000334,5177
0.211,858
-0.00563,5238
-0.291,8729
0.0283,4493
-0.0834,7131
-0.111,9829
-0.0982,8300
0.129,2687
0.254,1407
0.02,4561
-0.0119,5575
-0.0603,8663
-0.0876,7598
0.0788,2469
0.0452,3926
0.102,1820
0.256,581
0.0365,3911
-0.241,8289
0.213,2913
0.0131,4802
0.112,2032
0.00572,5080
-0.00587,4942
0.0622,4025
0.462,325
-0.34,7450
-0.0854,9733
0.00876,4946
-0.202,7747
-0.133,9065
-0.0208,5250
0.121,2279
0.129,1139
0.00116,5136
0.277,318
0.36,154
0.216,1616
-0.0859,6473
0.116,1928
0.204,1044
-0.183,5034
0.072,2286
-0.0438,6664
0.272,462
-0.0896,9204
-0.0104,5701
0.00603,4560
-0.0184,5093
0.305,2423
-0.0499,7126
-0.155,8313
-0.0203,5526
-0.0947,7035
-0.0177,5624
-0.086,7514
0.087,3068
0.109,1725
-0.0458,6828
1.42,737
0.0142,4354
-0.0318,6348
0.0448,4317
-0.0277,6382
-0.0031,5650
0.974,1108
0.13,1394
-0.179,7870
-0.233,10103
-0.0047,5273
-0.00368,5266
-0.195,9188
-0.0972,7181
0.0874,1309
-0.044,7856
-0.175,9061
-0.0376,5214
-0.634,10433
-0.244,9902
0.113,3068
0.267,713
0.0176,4327
-0.0778,8705
-0.00359,5314
0.117,2111
-0.0578,6961
-0.0433,8704
-0.00284,5179
0.698,94
-0.257,9480
0.123,3102
-0.0211,5479
0.281,451
0.414,1116
-0.16,8920
-0.229,9204
0.138,2792
0.218,1967
-0.0567,6852
-0.481,9725
0.165,822
-0.00231,5170
0.0187,4559
-0.00302,5025
-0.0129,5454
-0.0997,9035
-0.132,9307
-0.08,7360
-0.116,9162
-0.0681,6800
0.282,222
-0.0352,5832
0.0507,3083
-0.0988,8033
-0.171,9148
0.0418,4144
0.0943,3847
-0.345,10244
-0.0304,5878
-0.224,9981
0.0987,2470
0.556,167
-0.0268,6129
-0.0411,7103
0.00412,4406
-0.0532,6353
-0.0515,5575
0.0953,3243
0.1,2326
-0.0475,6456
0.126,1279
0.0335,3299
0.0652,2520
-0.116,7183
-0.114,7864
-0.131,10035
0.194,1040
0.238,249
0.0982,2139
-0.157,8845
-0.0475,6122
-0.0199,6911
0.0467,2756
0.095,2404
-0.0284,6630
-0.00711,5380
-0.28,10043
0.051,3704
0.137,1471
-0.303,9676
-0.18,9207
0.00151,5089
-0.0422,6211
0.13,1693
0.0922,2879
0.13,2112
0.023,4516
0.358,77
0.183,667
-0.158,7098
0.0503,3954
-0.167,8153
0.0393,3702
0.0681,2844
0.092,1012
0.832,353
-0.462,10337
-0.245,8473
-0.105,7342
-0.0767,8136
-0.133,9291
-0.0357,6998
0.063,3082
-0.156,9008
-0.211,9147
0.0869,1916
0.0776,1080
-0.188,8599
0.095,2865
-0.0259,5800
0.343,1343
-0.322,10471
-0.108,8468
-0.0201,5460
-0.109,7163
-0.0921,6210
-0.02,6052
-0.0486,7227
-0.0508,6805
-0.00795,5334
0.552,96
0.0531,3818
-0.0685,7776
0.135,1687
-0.00205,5130
0.0973,2889
0.0465,3891
0.137,1550
-0.14,9839
0.0942,1839
-0.268,10307
-0.0921,7517
-0.576,10295
-0.094,8363
-0.111,7505
-0.0254,5799
-0.113,9555
0.0667,1995
0.138,1616
0.285,387
0.0287,3765
-0.199,8226
-0.0874,8516
0.022,4426
0.0319,4218
-0.202,9776
0.197,569
0.0241,4518
-0.0445,6967
0.104,3189
-0.0579,6799
-0.0854,7552
-0.043,7206
0.0133,4400
-0.0894,7243
-0.0123,5752
0.114,2136
0.226,1
0.00897,4861
-0.00376,5531
-0.0419,5893
0.0743,2876
-0.146,9005
0.334,1157
0.0849,3159
0.478,24
-0.289,10258
0.118,2170
-0.336,7461
0.206,760
0.0192,4138
-0.0698,6735
0.264,674
0.0511,2797
-0.162,9416
0.0808,2681
0.412,471
0.0546,3133
-0.0646,7209
-0.00897,4960
0.0792,3619
-0.0967,8384
-0.0237,6163
-0.0169,5718
0.000605,5023
-0.0472,6660
-0.107,7064
-0.228,9437
-0.103,8538
0.0418,2999
0.00983,4717
-0.0741,6386
-0.157,8908
0.0929,2108
-0.0144,5711
-0.0212,5466
0.168,908
0.0853,2928
-0.0566,6347
-0.267,9903
0.126,511
0.115,1697
-0.161,8548
0.135,1095
-0.141,7411
0.0549,3976
0.128,1842
-0.046,6739
-0.289,7275
-0.162,8040
0.114,2857
0.245,162
0.117,2669
0.0258,4109
0.0909,2896
0.0594,3156
0.184,1095
0.164,1932
0.0135,4131
0.0585,2565
-0.122,8215
0.781,21
0.043,4156
-0.177,9646
0.0712,2497
-0.161,9426
-0.0159,5642
0.14,2248
0.0438,3577
-0.074,7126
0.027,4486
-0.0875,8636
-0.382,9913
0.0601,3974
0.0955,2033
-0.292,9103
-0.00562,5485
-0.184,10180
0.0151,4686
-0.0192,5392
-0.0532,7224
0.00537,4952
0.032,3754
-0.0818,7680
0.00489,4957
0.309,567
0.209,2197
0.0165,4273
0.324,1212
-0.0343,6419
0.0298,4044
0.342,529
0.0348,4294
0.135,2833
0.118,1714
0.117,1337
-0.112,5886
-0.0468,6181
-0.195,10286
-0.0483,6615
0.0793,1149
-0.0817,9212
0.0547,3833
0.114,3161
-0.184,9321
-0.198,8953
-0.17,10007
-0.113,9525
-0.0642,7045
0.187,959
-0.128,6556
0.126,2258
0.0539,3668
-0.0438,7135
-0.274,9971
0.103,1948
0.0279,4325
-0.191,8597
0.033,3437
0.0672,2826
0.125,1132
-0.266,10184
-0.0424,7550
0.113,1586
0.043,3607
-0.279,10394
0.0455,3800
0.000879,4825
-0.079,6395
-0.01,5178
-0.0431,7401
-0.00614,5476
-0.0174,6464
-0.332,10199
-0.00408,5109
-0.0114,5537
-0.0931,7607
0.0738,2361
-0.355,8853
0.0281,4443
-0.0672,6844
-0.297,9091
0.0783,3036
-0.0387,5736
0.216,1602
0.0374,3298
-0.126,8739
0.368,832
-0.0529,8287
0.108,365
-0.119,8067
-0.162,6901
0.0973,2253
-0.127,9087
0.0714,2552
0.00591,4813
-0.144,9289
0.542,38
-0.187,6543
0.059,3923
0.214,1199
0.0417,3698
0.0161,4787
-0.12,8299
-0.148,9248
-0.141,9070
0.0117,4668
-0.0999,9952
-0.418,10139
0.0386,3782
0.11,2921
-0.124,8845
-0.145,10033
0.0245,4365
0.124,2011
-0.00141,5038
-0.00724,4838
-0.267,8623
0.0187,4360
-0.0203,6859
-0.0168,5662
0.161,627
-0.0565,6718
-0.188,8612
-0.152,8520
0.176,683
0.358,568
0.0852,3663
-0.0822,6988
-0.271,10428
0.0376,3501
0.167,462
0.19,567
0.228,890
-0.0349,6057
0.164,1998
0.0837,1745
0.0711,1844
0.39,254
-0.218,9644
-0.385,9919
-0.131,9018
-0.0741,8138
0.0173,4379
-0.058,6482
0.106,2278
-0.279,10313
0.433,951
0.054,3967
-0.212,10343
-0.13,9218
-0.144,8624
-0.0368,6682
-0.0435,8773
0.0832,1391
0.0922,1620
-0.104,9272
-0.0572,6033
0.145,1722
0.103,1346
-0.0926,6853
-0.116,8527
-0.204,9539
-0.155,9688
-0.0977,7024
0.111,3337
0.132,1514
0.0377,2711
0.101,2119
0.245,655
0.255,1828
-0.0172,5677
-0.22,9601
-0.0294,6575
-0.0538,6236
0.255,781
0.0534,4173
0.149,2653
0.0649,2899
-0.0531,7356
0.451,324
-0.0692,6116
-0.154,9022
-0.048,7090
-0.0135,4940
0.228,171
-0.141,8934
-0.167,9625
-0.00973,5311
0.314,669
-0.153,8973
0.112,1709
-0.219,10073
-0.0487,5944
0.139,1881
0.17,1808
-0.0692,7483
-0.0319,5679
-0.142,6393
0.0529,3732
-0.184,9884
0.0204,4306
-0.00558,5413
-0.119,9675
-0.191,9191
-0.275,9069
0.0687,3372
-0.136,8311
-0.0121,5991
0.0413,3498
-0.0754,6145
-0.146,8612
-0.0696,6551
-0.233,9971
-0.157,8912
0.00891,4560
-0.0811,7793
-0.0495,5407
0.212,1563
-0.0739,6879
0.0286,4373
0.0081,4825
-0.187,9819
0.161,2668
0.216,1507
-0.0798,7897
-0.116,8012
0.0175,4561
-0.156,9470
-0.0537,6466
0.0406,4165
-0.032,6338
-0.0223,5862
-0.0513,7470
0.0982,3044
-0.117,7720
0.108,3079
-0.0538,6183
-0.0501,7953
0.0107,4431
0.0348,3286
0.0637,3599
-0.196,8399
0.0417,4175
-0.0595,7384
-0.179,9124
0.15,1891
-0.0973,8657
-0.559,10323
0.0418,3366
-0.0261,6331
-0.205,10146
0.0389,4154
0.206,237
-0.124,7337
-0.264,10015
-0.146,9745
0.055,1758
-0.325,10320
0.231,434
0.317,172
-0.141,7517
-0.0878,9071
0.0556,2830
-0.212,10267
0.0727,3073
0.632,149
0.119,3371
-0.111,6918
-0.0381,6843
0.609,104
-0.125,9136
0.337,352
-0.32,9558
0.0781,1176
-0.0326,6415
0.184,2466
-0.0879,7580
-0.0657,6858
-0.0168,5597
-0.161,10414
-0.158,10053
-0.00757,5247
0.296,815
0.0265,4211
-0.327,10418
-0.0285,8074
0.104,1071
-0.152,8273
-0.00786,5329
-0.126,5469
-0.0283,5093
0.357,319
0.0691,2982
-0.0909,7809
0.113,2621
-0.0434,7034
-0.189,7298
-0.121,9523
0.027,3843
-0.0918,7981
0.0554,3858
-0.288,9359
-0.282,10038
0.0564,3197
-0.721,9691
-0.042,6045
-0.19,9420
-0.307,10376
-0.0368,6253
-0.154,9954
-0.0451,6598
-0.146,8949
0.34,184
0.191,1235
0.107,2742
0.251,809
0.029,4008
-0.0369,6829
-0.24,8053
-0.31,8842
0.472,251
-0.00272,5221
0.0109,4338
0.29,283
-0.0172,5147
-0.0727,6225
0.0574,3155
-0.0929,6813
0.064,3854
0.192,877
-0.11,7808
0.000388,5137
-0.0267,6527
0.00866,4928
0.00878,4773
-0.0231,5764
0.00604,4569
0.0449,4123
0.145,2211
0.161,2674
-0.107,6777
0.0483,3871
0.12,3096
0.0688,2280
-0.0221,5666
0.0735,3730
0.0269,4450
0.186,2024
-0.0348,5769
-0.0877,7610
0.114,2718
0.0602,1890
0.0864,1989
-0.00679,5407
-0.0542,7109
0.0661,2556
-0.0102,5641
0.3,1785
-0.265,6900
0.32,538
0.0912,3159
-0.0793,8219
-0.0255,5982
-0.377,9763
0.204,2226
0.311,988
0.103,2691
0.0378,2738
0.322,126
-0.13,7436
-0.0778,8509
-0.57,9006
-0.0571,7074
0.045,3772
0.111,2024
-0.167,8979
0.012,4661
-0.356,9950
-0.114,6029
0.0247,3892
-0.0556,6943
-0.138,8182
0.0963,3440
-0.0704,7691
-0.263,7352
-0.124,9735
-0.104,8736
-0.121,8069
-0.154,9076
-0.217,9822
-0.0233,5195
-0.0484,7101
0.14,1155
-0.267,9710
-0.169,9778
0.172,1577
-0.0313,5621
0.065,2309
-0.0668,7646
0.0347,3932
0.0542,3741
-0.352,9982
-0.221,8061
0.332,328
0.231,1304
-0.0744,6827
0.0647,4364
-0.152,8461
-0.159,8491
-0.0467,7360
-0.164,5891
0.131,3361
0.0195,3969
0.0139,4802
-0.0883,8650
-0.0912,9015
-0.0138,5337
-0.0808,6756
-0.183,8725
0.268,910
-0.109,9290
-0.0922,8500
-0.0178,5918
-0.0421,4436
-0.19,9304
-0.105,6455
0.0424,3673
0.112,1183
-0.067,6429
-0.0247,5724
-0.0942,7412
-0.282,10026
-0.00547,5037
-0.0346,6751
-0.156,8280
-0.0252,5439
0.188,1791
0.278,1306
-0.261,10131
-0.022,6740
0.489,95
-0.0378,6316
-0.136,7652
-0.216,9550
0.0661,2810
-0.0277,5652
-0.0411,6417
-0.248,9476
-0.246,9021
-0.0273,6370
-0.00388,4963
0.0855,2126
0.254,258
-0.135,10109
-0.00908,5122
0.0972,1538
-0.0124,5600
0.0253,4246
0.134,2083
-0.00215,4985
-0.12,6502
0.119,2743
-0.0942,8313
-0.167,9374
-0.0263,5897
-0.163,9467
-0.409,10185
-0.0674,6857
0.0607,2295
0.0001,5200
0.188,560
0.193,758
-0.154,9883
-0.107,6633
0.0671,1858
-0.173,9384
0.7,440
-0.0155,5401
0.54,324
-0.175,7380
-0.00442,5454
-0.159,8693
-0.159,10250
0.171,2307
-0.187,8251
0.139,1954
-0.218,9479
0.0782,2077
0.0778,2934
-0.0878,7359
0.199,3292
-0.0553,7504
-0.0773,8881
0.113,1455
0.000333,4902
-0.185,8288
0.81,8
0.357,1671
-0.0682,8813
-0.0357,6021
-0.00989,5099
-0.158,7641
0.101,1555
0.003,5047
-0.167,9768
-0.163,10008
0.305,86
0.114,1538
-0.169,7364
0.109,2319
0.205,1855
-0.22,8905
-0.464,7961
0.044,4283
-0.025,6226
-0.191,9423
-0.11,7744
-0.361,9589
0.089,481
0.213,940
-0.0626,7363
-0.0426,8684
0.0614,3638
0.367,22
-0.108,7030
-0.0745,7187
0.014,3889
-0.219,10164
-0.102,7825
-0.417,9819
-0.495,10277
-0.141,8940
-0.012,5488
-0.0977,9090
0.123,2984
-0.228,9593
0.0277,4504
-0.153,8750
0.0258,3855
-0.102,9344
4.25,17
0.087,3340
0.48,51
0.0558,3569
-0.0353,7196
-0.1,8869
-0.236,10246
0.0712,2762
-0.0825,7668
-0.165,10288
0.1,2103
0.0239,4068
0.0192,4491
-0.0478,6805
-0.0366,5522
-0.274,9188
0.217,968
0.1,578
-0.0584,6782
-0.114,10109
-0.344,9841
-0.222,9567
0.0828,1405
0.00775,4715
0.279,190
-0.152,7975
0.433,724
-0.0821,7463
0.0699,3137
0.0803,1725
-0.0251,5975
-0.241,10157
0.173,1145
-0.115,8648
-0.0825,7951
0.197,656
0.0771,2964
0.0631,3161
-0.101,8812
0.0906,3501
0.0601,1654
0.217,521
0.0501,3626
-0.177,9971
0.166,1349
0.11,3203
0.0176,4314
-0.189,9838
0.206,1392
-0.00821,5468
-0.131,8874
0.0186,4381
0.0433,3466
0.102,1646
0.496,712
0.346,94
-0.175,9315
0.149,2466
-0.238,10076
-0.197,10353
0.0411,4112
-0.0296,6211
0.51,798
-0.131,9662
-0.0352,6243
-0.146,9276
0.133,2540
-0.0176,5154
0.191,1645
-0.118,8132
-0.0705,7667
0.251,602
0.148,1991
-0.321,10106
-0.033,6018
-0.226,10136
-0.0297,6404
0.244,1056
-0.0934,6860
0.33,1311
0.0242,4237
-0.154,9003
0.00189,4980
-0.042,5533
-0.0953,8260
-0.0566,6421
0.0302,4428
0.065,1814
-0.0287,5921
-0.0521,6142
-0.0354,5336
0.0634,3830
-0.116,8189
-0.105,9042
-0.00536,5469
-0.0285,5766
-0.0762,6740
-0.165,9022
0.066,2852
-0.188,9300
0.182,1370
0.273,754
-0.233,9178
-0.0179,5510
0.0864,2655
-0.275,9799
-0.191,9174
0.0821,2857
0.226,1133
-0.235,9403
0.0838,3133
0.175,431
0.113,2130
-0.0496,6824
0.266,251
0.116,1001
-0.164,10166
0.0875,1631
-0.0347,6379
-0.00582,5267
-0.106,8026
-0.0524,7972
-0.176,8994
0.151,388
-0.152,10197
-0.0392,6156
-0.304,9577
0.0521,4204
-0.000895,4934
-0.0772,7311
-0.0187,6617
0.00165,4981
-0.0417,6028
0.272,175
0.386,648
0.0117,4731
0.206,119
-0.00292,5203
-0.0211,5784
-0.203,8666
0.00948,4941
-0.0321,6574
-0.0935,7689
-0.0463,6407
-0.0336,5768
-0.0232,6394
-0.0727,6335
0.081,1167
0.0316,3320
-0.186,8006
0.392,494
-0.0436,5439
-0.376,9481
-0.0808,7961
-0.142,8788
0.456,224
-0.156,9369
0.0901,3019
-0.217,9199
0.0238,3844
0.0226,4073
0.142,1304
0.0643,2891
0.125,2876
0.213,3241
0.123,2328
0.062,2683
-0.00445,5065
0.0191,4556
-0.122,7696
0.115,1078
-0.117,8664
-0.000227,5083
0.311,156
0.0282,4128
-0.00647,5099
-0.312,7497
0.329,9
-0.0131,5659
-0.208,5694
-0.441,9387
-0.028,5831
-0.349,9885
-0.158,8718
-0.165,9811
-0.152,7564
-0.346,10264
-0.106,8848
0.105,2211
0.09,2269
0.0612,1558
-0.0117,5403
-0.151,7583
-0.125,7218
0.0998,2401
0.0344,3340
0.0512,3026
0.468,755
-0.0232,5452
-0.169,8724
-0.129,8895
-0.0999,8619
0.0543,3596
-0.108,7665
0.0768,2961
0.655,535
-0.134,9044
-0.236,8473
-0.0216,6201
0.0634,2622
0.0645,3625
0.198,547
0.0165,4544
0.263,27
-0.278,9442
-0.058,7048
0.157,2025
0.263,1259
-0.143,8084
-0.0157,5497
-0.00388,5195
0.352,492
-0.102,7674
-0.133,9626
-0.0992,8666
0.0918,1873
-0.107,8268
-0.0913,8828
0.00125,4931
0.0366,3117
-0.000124,5019
0.0423,3260
-0.0259,6183
0.0543,2677
-0.0251,5307
-0.0166,6324
0.182,1426
0.00123,5093
-0.0914,7037
0.116,2211
0.229,890
-0.0167,5759
-0.163,9770
-0.0386,6997
-0.0624,8321
-0.383,10438
-0.0922,7853
0.301,1183
-0.118,6378
0.0471,2473
-0.0967,9736
-0.244,10142
-0.0892,6965
0.0456,3152
0.285,1439
0.0304,3614
-0.138,8588
-0.224,6875
-0.227,7870
-0.00247,5337
0.102,3577
0.188,2417
0.0432,3637
0.504,2450
2.43,322
-0.0181,5000
0.745,1386
-0.0237,5600
0.115,2745
-0.279,9785
-0.366,9972
0.00233,5058
-0.0295,6166
-0.255,9911
-0.219,9965
0.341,1685
-0.00925,5158
-0.105,9403
0.0261,4176
-0.145,9395
-0.223,10280
0.0211,4466
-0.139,8978
0.0691,1142
0.0914,2416
0.00116,5019
0.0518,4117
0.022,4378
0.0718,1352
0.125,2346
0.0852,3485
0.146,1936
-0.209,8432
-0.402,9894
0.0339,2010
-0.0667,9225
-0.028,5859
-0.0252,5746
0.397,31
-0.115,7513
0.244,765
0.165,403
0.0374,3837
-0.072,7105
0.000522,5139
0.0832,2917
0.00251,4853
0.113,1171
0.0143,4591
0.111,2092
-0.182,8458
0.0197,4499
0.192,2027
-0.0917,7620
-0.0895,9127
0.0979,2514
-0.0604,5924
-0.13,9249
-0.106,8421
-0.121,8997
-0.135,9750
0.123,1327
0.05,3842
-0.104,8891
-0.258,9685
-0.122,9226
0.0583,1982
0.214,387
0.153,884
0.313,937
0.0183,4151
0.0676,2378
-0.141,8857
-0.0384,6247
-0.0271,6019
0.186,1206
0.077,1689
0.226,2040
0.251,332
-0.176,9360
-0.076,7368
-0.0711,5556
0.0767,3110
-0.00165,5220
-0.064,8161
0.353,374
-0.0384,6007
0.0733,3181
0.0752,1565
0.0842,2533
0.0786,1956
-0.0386,6593
-0.0848,7546
-0.286,10277
0.0272,4599
-0.165,8821
0.0177,4080
-0.166,8661
-0.0261,6012
-0.0227,5119
-0.116,6776
-0.138,9320
-0.0163,6061
-0.0585,6891
0.0617,2742
0.159,1516
-0.042,6092
0.141,2724
-0.124,9722
0.184,941
-0.0423,6061
0.023,4385
0.26,1151
-0.083,7655
-0.164,9366
0.00554,5033
0.0991,2765
-0.186,8089
-0.0531,5939
0.111,381
-0.138,6573
-0.178,9097
0.0808,2500
-0.152,8007
-0.0424,5547
-0.0492,7721
0.0546,2642
0.128,2559
0.0155,4852
-0.199,8937
0.926,86
0.0111,4643
-0.124,9327
0.0313,4050
0.083,2204
-0.117,7006
-0.176,9798
0.0808,3071
-0.0618,6557
-0.339,10327
-0.0692,6601
-0.0286,5825
-0.0351,6388
-0.236,9901
-0.103,7437
-0.0569,6834
0.46,604
0.26,750
0.126,1956
-0.323,9168
0.11,711
0.183,331
0.0201,4177
-0.132,7024
0.0165,4633
0.114,1538
0.0563,2443
-0.373,9339
0.0242,4095
-0.149,8672
-0.148,8655
-0.336,10074
0.0434,1283
0.033,3851
0.0922,3304
-0.126,6735
-0.356,10125
0.182,630
-0.0268,7374
-0.0595,7317
-0.0974,7633
-0.142,9100
-0.0579,6907
-0.0708,7413
0.391,29
-0.0501,5949
-0.0285,5950
0.165,1760
0.0134,4673
0.0405,4183
-0.00236,5315
0.132,1713
0.236,1083
-0.0748,7811
0.155,1742
-0.122,8010
0.262,209
-0.186,9721
0.0287,3964
0.00654,4801
0.092,2360
0.151,96
-0.0811,9605
0.011,4905
0.0995,2654
-0.0671,7686
-0.181,9916
0.03,3785
-0.0524,7760
0.126,1824
0.0779,3107
0.0814,3082
0.257,761
-0.0895,6234
-0.054,7541
-0.0327,5821
0.225,1562
0.766,278
-0.113,7832
0.08,2810
0.0136,4220
0.00496,4992
0.0111,4603
-0.0972,6904
0.00274,4906
-0.0507,7203
0.163,776
-0.664,9625
-0.14,8416
0.0438,3692
-0.0809,6527
-0.00994,5695
0.00204,5152
0.186,1231
-0.204,8709
0.186,1233
-0.172,9610
-0.0106,5777
-0.0819,8727
-0.399,10071
0.379,532
-0.103,8054
-0.374,5628
-0.00674,5780
-0.0791,7835
-0.0312,4642
-0.054,7001
0.0133,4866
-0.13,6416
0.0725,3283
-0.065,7161
-0.272,10469
-0.057,6587
0.244,780
0.0165,4242
0.144,1545
0.244,874
0.0255,4236
0.228,470
0.215,2113
0.156,1610
-0.0205,6129
-0.0394,6675
-0.0955,7538
-0.101,8921
-0.212,8624
0.573,351
0.226,413
-0.0812,6587
-0.168,8800
-0.132,7226
-0.0047,5004
0.0667,1760
-0.0589,8564
-0.00176,5081
-0.12,8880
0.109,3139
-2.55e-05,5080
0.291,1351
-0.0193,5779
-0.132,8780
0.145,701
-0.0057,5019
0.00168,5441
0.012,4743
0.017,4625
-0.169,8729
0.232,392
-0.269,7846
0.473,22
-0.335,6544
0.0407,3502
-0.021,6470
-0.173,9249
-0.0265,5766
0.114,3023
-0.418,6795
-0.0931,9711
-0.259,7333
0.0295,4068
-0.0835,7986
-0.588,7354
0.0801,3887
-0.0252,6430
-0.0791,7188
0.0176,4471
-0.0646,7451
-0.128,9654
0.151,1700
0.00792,4756
0.0536,2229
0.219,920
-0.153,8044
0.984,1004
-0.18,7770
0.0283,3656
0.157,195
-0.238,8116
-0.268,9093
0.122,1821
-0.114,7833
0.0611,2735
-0.098,8867
-0.0415,6803
-0.253,9698
-0.212,7082
0.0184,4589
0.0136,4338
0.0467,3485
-0.123,6683
-0.116,7110
-0.105,7973
-0.231,9647
0.0571,2759
-0.132,8866
-0.163,8976
-0.0758,8013
-0.015,5795
-0.0672,6799
0.137,1146
0.0165,4233
-0.0708,6203
0.039,3368
0.0334,3478
0.2,907
0.00578,5083
0.216,1602
-0.137,8528
0.0471,3243
-0.0319,6648
-0.255,9410
0.0623,2974
0.22,653
-0.0336,5838
0.534,724
-0.108,8592
0.241,996
-0.117,8811
-0.19,8973
0.247,980
-0.047,6970
-0.0276,5998
-0.107,6841
0.0882,2942
0.049,3454
0.29,1171
0.0171,4190
-0.0955,8178
-0.503,8430
-0.108,7933
-0.152,7803
-0.132,8689
-0.00219,5313
0.142,760
-0.0622,6204
0.204,1030
0.142,1050
0.000908,5153
0.0225,4365
0.235,645
0.231,1276
0.085,3015
-0.00779,5570
-0.123,8986
-0.169,9137
-0.141,10319
0.0173,4583
0.0463,3692
0.378,173
-0.0393,7051
-0.0946,7284
-0.0854,9224
-0.22,6506
0.119,3386
-0.0927,5971
0.0914,2904
-0.0789,8338
0.0688,2385
-0.119,9856
0.0197,4585
0.163,1858
-0.158,9708
0.078,875
0.0222,4382
0.162,1719
0.414,600
0.0631,4015
0.424,166
-0.0219,5345
0.125,1480
0.105,2154
-0.00549,5312
0.0183,4238
0.112,1255
0.0164,4695
0.0209,4483
0.346,432
-0.214,8768
-0.039,6564
-0.0299,6004
-0.0514,7014
-0.0838,6975
-0.153,8581
-0.338,10289
0.343,1357
-0.154,10144
0.0253,4340
-0.0282,5883
0.179,1979
0.00732,4861
0.0541,1826
-0.23,8759
-0.176,9935
0.000922,4984
0.0627,2901
0.204,1246
0.0396,2782
0.166,942
-0.145,8491
0.0929,3405
-0.0329,5951
-0.354,9407
-0.0391,6449
-0.198,8765
-0.279,10337
0.0235,4068
-0.167,8479
0.198,1822
-0.00213,5138
-0.25,9916
0.293,673
0.0764,3575
0.488,708
0.0931,3204
-0.0411,6537
0.243,1172
-0.221,8905
0.0603,3322
-0.322,9824
-0.135,7477
-0.0523,6189
-0.000157,5151
0.0294,3967
0.461,17
0.121,2117
-0.0689,5988
-0.0262,6094
-0.159,10089
0.453,65
0.0639,3507
-0.255,7699
0.0908,3526
0.0182,4368
-0.123,9093
0.248,1546
0.0414,3736
0.143,2170
0.0517,2279
-0.0124,5598
-0.0636,6942
-0.0214,5625
-0.117,9237
0.0131,4695
-0.0109,5690
0.373,214
0.0923,2522
0.0472,2891
0.446,204
0.121,3516
-0.0593,5999
0.0899,1584
-0.0207,6021
-0.02,5583
-0.157,7874
-0.0835,6880
0.126,3494
0.115,1062
-0.0939,9868
-0.218,8351
0.451,343
0.268,384
0.0403,3615
0.0168,4451
-0.172,10112
-0.0619,6822
-0.13,7958
0.0928,2753
-0.0547,6537
-0.112,6918
-0.128,8893
0.06,2752
0.0879,1871
-0.0112,5230
0.0013,5132
0.0198,4283
0.0954,1996
0.0179,4482
0.194,1454
-0.0777,7942
-0.106,6449
0.0636,3012
0.0194,4148
0.00541,4630
-0.122,9347
-0.0596,5936
0.135,1175
0.0699,2693
0.0966,1596
-0.841,9849
0.36,546
-0.23,9816
-0.206,8687
0.244,1286
-0.0284,6150
0.173,1851
-0.493,8023
0.00569,5039
0.0905,1177
0.136,210
0.0972,2356
0.0243,3601
-0.331,10168
-0.00164,4694
-0.119,8552
-0.0818,8179
0.0596,3340
0.283,1924
0.112,2957
-0.0808,6291
-0.154,9918
0.18,93
-0.0542,6603
0.143,2141
-0.188,8022
-0.0936,7017
0.0721,3099
-0.0158,6248
-0.363,10252
0.113,2180
-0.107,8931
0.345,1025
-0.188,9297
0.0983,1279
-0.174,9423
-0.387,10336
-0.0469,6193
-0.576,7641
0.0354,3850
-0.0608,8516
-0.0173,5831
-0.116,8181
-0.201,9561
0.0158,4247
0.128,1614
0.293,12
-0.0239,6058
-0.272,10064
0.145,2239
-0.125,8036
0.137,1991
-0.0815,9554
-0.194,9987
0.0392,4244
-0.152,8830
0.00908,4999
-0.0201,6117
-0.0588,7211
-0.0769,7923
-0.0467,6703
-0.195,9661
0.174,247
-0.058,7719
0.064,2886
0.0131,4562
-0.0383,6180
-0.049,6879
-0.132,6960
0.00219,5085
-0.014,5996
-0.179,9762
0.0587,3379
-0.0628,5972
0.544,18
0.272,427
-0.105,8792
-0.204,10037
-0.0649,6213
-0.0407,6501
-0.231,9244
0.227,1707
0.0485,2949
-0.0182,5516
0.222,1961
-0.062,7843
-0.155,8168
0.171,1490
0.0231,4593
0.159,2015
-0.116,8602
-0.123,9958
-0.145,8907
-0.127,7765
-0.0775,7031
-0.0989,6931
-0.161,6503
-0.33,9820
0.0806,1592
0.202,223
-0.0749,8036
-0.296,8998
0.0302,4448
-0.208,10322
0.253,11
-0.0823,7336
-0.15,9254
-0.624,9458
-0.0711,6036
0.407,279
-0.0131,5746
-0.00098,5011
-0.0881,7828
0.0861,2449
0.117,2661
0.0273,4185
-0.212,8955
-0.0468,7737
0.142,839
-0.0647,6291
0.148,2064
-0.0277,5910
-0.0142,5590
-0.0854,7491
0.133,1321
0.0836,1758
0.138,1674
0.0308,3660
0.333,100
-0.0891,8142
0.241,710
-0.385,9685
-0.16,9165
0.159,1447
-0.0922,7865
-0.0543,6168
0.0311,4361
-0.086,7464
-0.369,9559
0.0357,3846
0.166,1243
0.344,274
-0.0152,5798
0.0801,2811
0.0682,3737
-0.0426,8313
0.0364,3899
-0.337,8828
0.562,785
0.0618,2042
0.0245,4297
-0.2,9957
0.0609,2206
0.000173,5064
-0.118,9320
-0.0208,5588
-0.171,7945
-0.0705,7821
0.00852,4780
0.0725,3595
0.163,1784
-0.0358,5682
-0.309,10162
0.0745,2870
0.212,756
-0.234,8903
-0.065,6894
0.476,540
-0.24,9155
-0.12,7526
0.0288,4035
0.105,2143
-0.43,10368
-0.218,6800
-0.156,6143
0.00743,4848
0.169,2193
-0.455,6894
-0.733,9998
0.00925,4862
-0.364,10346
-0.0973,7830
-0.0914,9321
0.0745,2273
-0.158,8209
-0.0427,6696
-0.0375,6062
0.0454,3295
-0.127,9106
0.161,680
-0.00918,5438
-0.0409,6700
-0.187,8123
-0.0598,8660
-0.0342,7519
0.012,4577
0.0935,3262
0.146,1416
-0.0472,6067
-0.0729,7766
-0.109,9897
0.0106,4504
-0.0202,6274
0.024,4059
0.00748,4535
0.0954,1793
-0.135,9666
-0.0385,6552
0.0628,3270
-0.219,8849
0.134,2065
-0.0927,8447
0.208,269
0.0236,4312
-0.0889,8012
-0.221,7946
0.365,536
0.144,1076
-0.0436,6198
-0.0536,7609
0.264,756
-0.0785,6822
-0.0905,9179
-0.112,7593
0.0848,3054
-0.239,9635
-0.0571,6953
0.181,1663
0.118,2346
-0.0317,6255
-0.0413,6697
-0.118,8209
0.0535,3991
-0.0139,5044
0.289,1021
-0.0246,6551
-0.0854,9338
-0.0472,5546
-0.185,7058
-0.255,9203
0.0756,3287
0.144,1983
-0.0646,5690
0.0126,4547
0.104,2561
-0.0022,5080
0.215,1702
0.0561,3892
-0.0595,6867
0.0888,2417
-0.103,8310
0.0793,3167
0.564,769
-0.103,8754
0.0586,3380
0.0134,4330
-0.109,7461
-0.1,5926
-0.0757,7791
-0.0289,5602
-0.0939,8635
0.0101,4693
-0.0449,6215
0.0573,3171
-0.246,9933
-0.011,5825
-0.0717,7919
-0.0799,7936
0.0285,3949
-0.182,7773
0.133,2061
-0.0505,6875
0.134,1382
-0.103,7145
-0.0736,7120
-0.182,8988
-0.192,9236
0.0691,2854
0.248,1432
-0.0146,5950
0.0267,3821
0.141,1107
0.0828,1303
0.0893,1037
0.0881,998
0.219,294
-0.111,7534
-0.317,10209
