coef,rank
-0.39,7987
-0.0953,6701
-0.25,9638
-0.206,7789
-0.257,7463
-0.129,8277
0.0497,2996
-0.121,7879
-0.144,8109
0.0801,3134
-0.257,10399
-0.00358,5267
-0.0173,5859
-0.307,10271
-0.363,9850
-0.101,4964
0.0258,3587
0.076,1038
0.299,100
-0.0219,5782
0.0494,3975
0.276,2010
-0.252,10239
-0.0902,7716
0.732,211
0.203,1587
0.0116,4670
-0.273,5826
-0.0535,6114
-0.15,9526
-0.145,8938
-0.451,9999
0.0998,2765
0.168,2582
0.141,1010
-0.0838,8892
0.0667,2879
-0.484,10436
-0.17,9240
-0.159,8908
0.0128,4211
0.0387,2796
-0.0345,5866
0.0398,3787
0.0267,4279
-0.0772,6641
0.0138,4048
-0.0396,7723
0.103,2816
0.151,1059
0.356,122
0.0479,3843
0.0497,3770
-0.113,9789
-0.0496,6757
-0.0813,6896
-0.563,10146
0.0529,3843
-0.0815,9018
-0.119,9387
-0.0155,5291
-0.208,9757
-0.0633,7909
-0.107,9961
0.0506,3015
-0.00372,5350
0.114,1294
0.276,116
-0.0517,6560
-0.264,6754
-0.0153,5887
0.0165,4276
-0.0437,6221
-0.0876,7102
-0.019,5608
0.0787,2789
-0.0477,6994
-0.18,9994
0.00133,5032
-0.18,9938
-0.243,7469
0.00497,4619
-0.0623,8305
-0.0686,7819
0.237,370
-0.0909,6877
0.196,609
0.0449,4131
-0.0833,9041
0.0715,1558
0.0712,3480
0.12,2326
0.303,894
-0.169,8719
-0.21,9575
-0.0181,5861
-0.0321,5318
-0.149,9989
-0.105,8558
0.171,1184
-0.0126,5646
-0.015,5629
-0.028,6236
-0.157,8190
0.174,2443
-0.0469,6106
0.185,1920
0.176,1502
0.00471,4751
-0.107,7758
0.306,1707
-0.0836,6720
-0.0323,6682
-0.0301,6863
-0.264,10250
0.335,66
0.103,1383
0.0546,3499
0.375,107
0.0576,2234
-0.0107,5832
-0.0435,7257
0.112,3085
0.091,3685
-0.0415,6968
0.014,4724
-0.378,10110
0.138,1640
0.0421,3847
0.0389,3907
-0.0163,5763
0.116,2017
-0.157,8252
0.0918,2234
-0.197,4833
0.197,2195
0.142,833
0.0732,2643
-0.0988,6134
-0.0109,5740
-0.134,8012
0.0742,3063
0.0103,4574
-0.104,8927
0.00595,4855
-0.198,9222
-0.112,9291
-0.336,10213
0.0601,3180
-0.0225,6144
0.514,1596
-0.123,8549
-0.205,8076
0.347,112
0.439,35
-0.126,8970
0.0727,3656
-0.0406,6374
0.147,1757
0.115,2097
0.286,554
-0.0288,6861
-0.13,8564
0.0296,4432
0.0919,1838
-0.00321,5421
0.0894,2778
-0.106,9285
0.0577,3369
-0.329,9721
-0.00725,5613
-0.0538,7539
-0.0898,9890
0.161,985
0.131,841
0.129,1970
0.338,1262
-0.0336,7341
-0.0331,6368
0.0133,4688
0.176,398
-0.198,10305
-0.161,10312
-0.0549,9235
0.0178,4570
-0.0409,6735
0.074,3178
0.18,482
-0.344,9079
-0.124,9374
0.0718,2636
-0.0194,6588
0.134,1268
-0.137,8253
-0.197,8270
-0.0942,8784
-0.145,9008
-0.063,6258
-0.111,9868
-0.158,8163
0.0943,2329
-0.00398,4971
0.034,3392
-0.088,7185
-0.0396,6059
-0.119,7635
-0.09,7741
-0.125,7949
0.0611,2666
0.0966,1527
0.0895,2096
0.038,4218
-0.247,9849
-0.103,7590
-0.0733,9238
0.0596,2642
-0.0312,6288
-0.115,8257
0.146,2651
0.66,1909
0.0724,3173
-0.186,10374
-0.0162,6254
0.176,1684
0.282,1579
-0.168,8834
0.0235,4187
-0.0601,7905
0.00825,4688
0.161,2016
0.216,529
-0.222,9022
0.00156,5128
-0.059,8578
0.271,412
0.229,825
0.0621,3963
-0.00811,5169
-0.0141,5168
-0.195,7393
0.361,1040
0.0976,1796
-0.00575,5482
0.013,4545
-0.0844,7906
-0.143,8729
0.0192,4736
-0.203,10177
0.115,2511
-0.013,5651
-0.0367,7261
0.0285,4420
0.0411,4205
0.0704,3554
-0.531,10255
-0.0708,7501
-0.00196,4920
0.298,70
0.0663,3207
-0.232,9991
0.0494,3665
0.103,1412
0.00212,5170
-0.373,10260
-0.0592,7096
-0.033,5757
-0.202,7130
-0.0463,6190
0.0247,3426
-0.0561,6701
-0.101,8257
0.0448,3787
-0.058,7102
0.0847,2422
0.116,2605
0.0216,4433
-0.000314,5011
-0.0134,5433
-0.0677,7440
-0.0255,5830
0.0134,4563
0.345,246
0.0736,3463
0.136,1974
-0.225,9881
-0.11,9730
-0.081,7244
0.017,4517
0.161,1696
-0.184,8585
-0.101,6767
-0.0415,7391
0.03,4086
-0.0561,5971
0.186,536
-0.0699,6831
0.0928,3523
0.048,3456
0.197,413
-0.0704,6930
0.0651,3128
0.0296,4377
0.103,3518
0.0555,2365
-0.0449,6278
-0.000321,5164
-0.196,7420
-0.0968,7017
0.0135,4414
0.0617,2109
-0.158,9672
0.094,2642
0.215,1798
-0.165,7947
-0.148,8767
-0.141,7512
-0.0683,6805
0.515,185
-0.112,8521
-0.25,9640
0.405,1015
0.0805,1802
-0.0199,5975
0.0426,3588
0.165,1394
-0.0141,5722
0.645,774
0.0343,3757
0.108,1244
0.0783,3367
-0.116,7823
0.0719,3363
0.355,2148
0.149,702
-0.00536,5447
-0.000513,5095
-0.159,10054
-0.0354,6630
-0.131,7213
-0.00902,5539
1.2,1025
0.0442,4141
-0.0749,9045
0.0445,2622
0.0312,4353
0.172,220
0.41,45
0.963,1487
1.04,351
-0.537,7187
-0.534,7803
1.46,325
-0.198,9002
-0.0169,5357
-0.207,9935
0.13,2028
0.096,1057
0.0556,1890
1.98,83
0.0947,3286
-0.305,10019
0.0317,4224
0.0801,2794
0.0536,2539
0.542,515
0.264,825
0.033,4048
0.0967,1949
0.309,566
0.0493,3060
0.142,1648
-0.0385,5976
0.000103,4982
0.206,1810
-0.322,10318
-0.0993,8724
0.126,2547
-0.0686,8933
-0.0129,5464
-0.264,7338
0.0738,2728
-0.0275,5795
0.00947,4834
0.196,787
0.00258,4954
-0.113,8320
-0.122,8882
-0.0357,6354
0.111,1992
-0.0182,5371
0.0975,2251
0.0682,3713
-0.124,8148
-0.0886,8370
-0.233,8743
0.124,1551
-0.226,9627
0.273,333
-0.212,10111
-0.0249,6143
0.0831,2600
-0.467,10423
0.127,2323
0.36,1989
-0.0617,10098
0.0776,2301
-0.23,9328
-0.175,8488
-0.0145,5441
-0.196,9333
0.0396,3246
-0.00229,5050
-0.0074,6332
0.148,1356
0.113,3067
-0.0736,7349
0.195,1651
0.0778,1749
0.0025,4951
0.177,1504
-0.0384,6375
-0.225,9332
-0.187,8455
0.00437,4819
-0.0252,5998
0.148,2125
-0.105,7632
-0.0871,7549
-0.031,6735
0.0443,3515
0.219,1138
-0.156,9292
0.274,922
0.0825,2513
0.043,3769
0.0368,3741
0.0842,1245
1.35,103
0.718,16
0.0125,4775
0.019,4521
0.245,68
0.0957,2399
-0.115,7460
0.0135,4757
-0.172,8492
0.237,1286
-0.109,9065
0.198,1939
-0.232,8656
0.203,983
-0.0109,5253
-0.07,7281
0.0693,2430
-0.035,7229
-0.0639,6554
-0.0751,7267
0.0529,3814
-0.135,9250
0.162,609
0.283,687
0.359,180
0.0203,4571
0.0252,4409
-0.0422,6190
0.111,1707
-0.0451,6876
0.149,1584
0.0341,4287
-0.16,10024
0.0337,3783
-0.0445,6428
-0.00718,5294
0.028,4270
-0.143,7389
0.14,1327
-0.202,9857
0.11,1167
0.369,849
0.165,778
-0.0377,5946
-0.338,10274
-0.284,10395
-0.0861,8391
-0.144,10071
-0.0806,8281
-0.147,9844
-0.145,9286
-0.185,9612
0.0477,1092
-0.00498,5178
0.00813,4734
-0.206,8233
-0.2,7777
-0.0218,6043
0.0472,3683
-0.039,6760
-0.143,8774
0.0336,4209
0.138,2545
0.0268,4066
0.0235,3545
-0.0161,5813
0.236,1653
0.078,2741
0.383,1038
-0.0544,6025
-0.276,9692
0.0391,3322
0.432,1247
-0.149,7570
-0.106,7136
-0.287,8528
-0.0188,5917
-0.0877,8843
0.148,858
-0.0642,6872
-0.134,7564
0.344,218
0.0688,2135
-0.0579,6939
0.0815,3919
-0.148,8379
0.0196,4570
0.387,1271
0.133,681
-0.0643,7221
0.261,579
0.0777,2535
0.0133,4786
-0.247,9905
0.142,906
0.0408,2780
-0.16,5216
-0.648,8798
-0.364,8342
-0.139,8808
-0.0578,6284
0.306,73
0.141,1987
0.253,854
-0.000139,4933
0.00676,5119
0.132,2194
0.068,3211
0.0589,3371
0.33,2185
-0.496,9557
0.0413,3408
0.167,1718
0.000227,5119
0.105,2796
0.363,186
-0.216,9996
0.174,1208
0.155,1525
-0.056,6797
0.0133,4631
0.202,1095
-0.353,10460
-0.311,10471
-0.18,9971
-0.0576,7205
0.0403,3638
0.417,140
0.00187,4859
-0.234,10394
0.148,1976
0.0247,4321
-0.15,9077
-0.0606,7021
-0.199,9510
-0.003,5224
0.147,401
-0.47,10231
-0.0718,7613
-0.216,8987
0.321,1548
-0.0295,6251
0.0777,2670
-0.145,7904
-0.103,8879
-0.0929,8843
-0.24,9275
0.0417,3413
-0.00152,5202
0.00778,4878
0.0272,4232
-0.111,7277
-0.427,10125
-0.0566,8522
-0.23,10117
-0.156,8522
-0.107,7915
-0.0364,6318
0.000894,4840
-0.257,10269
0.173,490
0.134,2313
-9.92e-05,4840
0.0854,2718
0.0314,4340
-0.118,8707
-0.0842,8787
-0.307,9924
0.231,66
-0.242,8903
-0.209,8595
-0.1,8291
-0.109,8883
0.0321,4373
0.173,743
-0.202,9148
-0.215,9245
-0.164,9564
-0.0152,5635
0.0142,4264
0.125,1850
-0.0353,6449
-0.0996,8185
0.00978,4652
-0.0729,6839
-0.0254,6147
0.822,1175
0.0409,4380
0.131,1206
-0.0328,6572
-0.154,10321
-0.104,9094
0.0557,3589
-0.0344,6088
-0.039,7091
0.0864,829
-0.0791,8205
0.13,2242
0.21,1581
-0.0116,5206
-0.0748,7649
-0.206,9543
-0.244,5813
0.103,2141
-0.233,8996
0.036,3995
-0.00136,5286
0.0593,3149
0.981,1566
-0.0369,6782
0.339,1289
-0.376,10226
-0.0768,8855
-0.103,7144
-0.299,6778
-0.67,9287
-0.218,9279
-0.00237,5046
0.0162,4704
0.133,2431
0.228,748
-0.04,7782
-0.0609,6661
0.101,3227
-0.328,8223
-0.212,10373
-0.00175,5098
-0.0593,7811
-0.0479,6049
-0.0258,6087
-0.0748,6340
0.0322,3753
-0.139,8963
-0.192,10002
-0.332,10284
-0.0377,5603
-0.175,8975
-0.12,7890
0.0483,3055
-0.0213,6044
-0.361,10302
0.167,351
0.0883,3187
-0.0454,5781
0.219,264
0.12,2715
-0.0139,5361
0.0818,3757
0.165,1182
0.133,2516
0.0169,4197
-0.0182,5630
0.0942,3103
0.275,1278
0.101,2536
0.0388,4033
-0.0674,6156
0.284,294
0.00903,4843
0.845,335
-0.162,8862
0.0919,2403
-0.00862,5233
-0.109,8220
-0.0761,8249
-0.173,8981
0.18,2758
0.768,1254
-0.02,6031
0.0562,2733
0.0241,3970
-0.0641,6404
-0.0635,8401
-0.303,8931
0.0856,2375
0.229,99
0.0319,4435
-0.0752,6882
0.214,842
-0.0323,6173
-0.257,10185
0.176,488
0.421,1075
0.165,2158
-0.493,9669
-0.0509,5886
0.108,819
0.0523,3608
0.199,1354
0.0508,3109
0.0695,3172
-0.398,9908
-0.0975,7979
0.0667,3093
-0.078,7295
-0.0242,6011
-0.283,8707
0.436,1613
-0.0207,6286
-0.09,9223
0.0587,2987
0.147,1731
0.114,2639
0.167,1921
-0.0721,8087
0.0806,2774
-0.107,7754
-0.438,10019
0.0858,2242
0.13,911
0.126,1356
0.0364,3640
0.124,1846
-0.178,8145
-0.119,9766
0.0121,4595
-0.22,9080
-0.0154,5918
-0.0224,5489
-0.032,5730
-0.15,9089
-0.199,8476
-0.023,6006
0.0168,4516
-0.0375,6115
0.245,1736
-0.0737,6714
0.203,1463
0.0666,2144
-0.304,9643
0.117,3290
-0.125,8084
0.036,4089
0.184,1425
-0.0888,8235
0.0983,2157
-0.223,8908
0.0374,3514
-0.246,8536
0.0477,3931
-0.0661,6780
0.0118,4414
0.0434,3797
0.0691,3398
0.23,832
-0.239,9563
0.146,823
-0.139,8576
0.049,789
0.00496,4698
0.00765,4254
-0.0132,8014
0.0263,795
0.162,2469
0.0623,3696
-1.18,9795
-0.16,9640
-0.149,8964
0.142,2874
-0.0991,6947
-0.0247,5419
-0.0173,5788
-0.0964,7006
0.0134,4646
-0.124,7231
-0.111,10119
-0.091,7609
0.209,552
0.778,526
-0.241,7194
0.167,2632
-0.416,8874
0.0204,4643
-0.107,7680
-0.489,9595
0.114,2459
0.588,31
-0.796,10456
-0.102,8485
0.121,1632
-0.271,8836
-0.0287,5951
-0.0275,6436
-0.179,10269
0.122,3277
0.18,1483
0.311,149
-0.108,6795
-0.154,8721
0.11,1271
0.033,2793
-0.0675,6845
0.101,2185
0.0288,4265
-0.0189,5253
-0.184,9106
-0.256,10280
-0.0106,5069
-0.0857,7787
-0.018,5525
0.206,301
0.0241,4056
-0.217,9993
0.0976,2027
0.0147,4471
-0.0457,5846
-0.0054,5034
-0.267,10414
-0.0908,8374
0.234,1697
0.171,773
0.085,3293
-0.166,7808
-0.0996,8556
-0.0396,6470
0.225,1890
-0.0811,8521
-0.0562,6618
0.0632,3063
-0.00468,5475
-0.127,9285
-0.0362,6547
-0.127,8935
-0.085,7258
-0.0571,6099
-0.0198,6300
-0.0357,6974
-0.344,9241
-0.196,8528
0.162,951
0.111,2521
-0.32,10373
0.0568,2837
-0.165,9967
0.399,1156
-0.134,8703
-0.0401,6809
0.101,3726
-0.119,8961
-0.0478,4964
-0.0363,7328
-0.131,9399
-0.0538,7481
-0.915,9177
0.33,2569
0.00589,4603
0.149,3055
-0.1,8305
-0.137,6795
-0.0392,6335
-0.0716,7576
-0.0333,6145
-0.123,8987
-0.0412,5967
0.0197,4653
0.24,679
-0.126,8904
-0.137,9180
-0.0412,6389
-0.0812,6756
-0.123,9239
0.0784,3440
0.263,803
-0.0415,6110
-0.0312,6151
5.12,45
-0.462,6160
-0.0988,7419
-0.0916,6204
-0.376,10302
0.274,837
-0.127,7506
0.119,1859
0.104,2224
0.02,4280
0.145,1271
-0.0519,8888
-0.03,5876
-0.155,8551
0.158,1737
0.027,3724
0.0068,4663
-0.0487,7674
-0.0333,5288
-0.151,8650
-0.573,10437
0.123,2320
-0.0826,9098
0.0669,3230
0.145,3129
0.00578,4925
0.0223,4551
0.16,2430
0.00626,4914
0.224,1017
0.19,2067
0.059,3236
0.00155,4969
0.127,2692
0.0393,2916
-0.106,9020
-0.204,4946
-0.64,9429
0.345,584
-0.108,9288
-0.338,9804
-0.0324,5545
0.226,1875
0.146,2380
0.0278,4268
-0.0171,5179
0.0675,1947
-0.19,9065
-0.347,6356
-0.235,7670
0.947,410
0.0364,3689
-0.138,8646
-0.0889,7674
-0.414,10125
-0.178,7228
-0.398,8890
-0.159,10255
-0.0767,7665
-0.0638,5800
0.0137,4645
-0.163,7404
-0.0282,6157
0.000364,5042
0.0071,4739
-0.057,8939
0.0321,3994
0.000721,5131
-0.0414,7260
0.00115,5108
-0.00565,5016
-0.0531,6493
-0.0551,7232
0.203,2165
0.0791,3632
-0.0409,6159
0.225,538
-0.0329,6293
0.0734,3321
-0.0365,5906
0.107,2641
-0.0604,6568
0.0469,3346
0.409,2005
-0.11,6832
0.151,3047
0.0946,3430
0.0884,2971
-0.0636,7038
0.236,1635
-0.138,8519
-0.116,8487
0.241,620
0.172,964
-0.0413,8867
-0.194,8876
0.0313,3969
0.118,3326
0.0689,3119
-0.1,9168
-0.207,10117
-0.125,7580
0.248,275
-0.356,9566
0.21,241
0.124,1945
0.101,1162
0.024,4589
0.0568,3868
-0.315,9059
-0.293,9808
-0.311,9797
-0.0376,6463
-0.103,8032
-0.0926,8262
-0.00238,5040
0.579,344
0.00171,4928
-0.0514,6937
0.101,3247
-0.0635,6921
0.104,2478
0.244,2085
0.314,62
0.111,1542
0.631,22
-0.0814,7144
-0.42,10281
0.118,3230
-0.205,9899
0.121,1417
0.106,1660
-0.0856,7082
0.0768,2301
-0.252,7620
0.0344,3169
-0.11,9121
0.0614,4009
-0.0651,6461
0.158,2917
0.213,991
-0.205,9661
0.0417,4062
0.0229,4395
-0.204,9465
-0.0489,7585
0.0763,2366
0.106,1526
0.148,975
-0.0239,5982
-0.0113,5342
-0.0689,6788
0.383,319
-0.0777,8395
-0.0459,6830
0.00567,4799
0.734,45
0.174,816
0.226,1662
0.283,271
0.0541,2689
-0.0927,6137
0.224,614
0.00274,4964
-0.00295,4963
-0.016,5437
-0.107,8575
-0.0413,5594
-0.105,8296
-0.453,8313
-0.0607,7152
0.0461,3848
-0.173,9700
0.0017,5189
-0.191,9420
-1.13,9959
0.145,920
-0.207,9898
-0.0587,7490
-0.0582,5675
-0.532,10326
0.00527,4874
0.0701,2716
0.128,642
0.0832,2650
0.226,865
-0.282,10033
0.0472,3824
-0.123,9193
0.114,1785
-0.00817,5232
0.0484,3628
-0.0161,5555
-0.227,9396
0.0458,2842
0.012,4551
0.327,184
-0.121,8994
-0.209,7934
-0.0646,6635
-0.0108,5316
-0.212,9671
-0.0984,7699
0.156,2123
0.223,1845
-0.0969,6715
0.0129,4589
-0.00114,4852
0.00726,4601
0.209,521
-0.211,10167
-0.115,7523
-0.147,9578
-0.0723,8572
-0.0929,6800
0.0573,3628
-0.163,8796
-0.272,6901
-0.12,7516
0.104,1135
0.0353,3594
0.151,1855
0.0706,2076
-0.116,6629
0.0232,3550
0.193,1154
-0.175,7926
-0.269,8025
-0.118,5369
-0.208,8741
-0.156,9194
0.0409,3235
0.0987,2100
-0.0682,7781
0.527,391
-0.187,9106
-0.0188,6244
0.0545,2792
-0.0632,6558
0.207,1842
-0.0615,6541
0.116,1901
-0.0522,7762
0.0599,3270
-0.0656,6662
0.204,933
-0.169,9762
0.624,224
-0.251,10208
-0.149,7767
0.177,496
-0.229,9617
-0.113,9901
0.149,1882
-0.078,9017
-0.169,8644
0.0627,2791
0.251,87
0.144,3567
0.207,1056
0.0294,3186
0.0943,1588
0.21,761
0.277,437
-0.0536,5938
0.0314,4467
0.18,262
-0.00308,5220
0.0257,4399
-0.239,9091
0.0113,4888
0.148,1665
0.201,885
0.0115,4466
-0.695,9785
0.0578,3671
0.311,1223
-0.139,9105
0.117,1900
0.827,143
-0.189,9976
0.0687,3619
-0.336,9646
-0.208,9901
-0.0555,7594
-0.0469,6538
0.065,2960
0.111,1370
0.181,1467
0.037,3841
-0.0656,8125
0.0142,4346
-0.0287,6509
-0.033,5299
0.316,420
-0.0592,7321
0.09,2247
-0.0307,6209
-0.623,8280
-0.392,9594
-0.0774,6688
-0.732,9997
0.123,1460
-0.0973,6941
-0.0272,6226
-0.117,8770
-0.233,9956
0.222,802
0.0748,3816
-0.0366,7169
0.507,1
-0.0602,6806
-0.182,8110
0.268,1390
0.203,745
-0.00479,5460
-0.0737,7529
0.00317,4884
0.037,3811
0.0437,3395
0.0777,1654
-0.0996,8910
-0.0907,8145
0.08,3430
-0.384,8693
-0.0309,5176
0.245,747
0.0756,2703
-0.024,5356
0.14,708
0.164,1716
0.115,2802
-0.16,8884
-0.147,9360
0.129,1980
-0.337,7457
0.486,6
-0.412,10114
0.164,462
-0.155,9706
-0.0895,8693
-0.116,7040
-0.00576,5556
-0.119,7599
-0.0736,9007
-0.107,8718
-0.0343,6220
0.322,136
-0.237,10313
0.247,1268
-0.241,9785
-0.0757,5996
-0.291,10092
0.0827,3320
-0.175,7981
-0.401,7920
-0.19,9787
0.142,2709
-0.121,8379
0.322,273
-0.13,8120
0.00245,4771
0.0696,2558
-0.048,6582
-0.122,8206
-0.162,7218
0.0431,3229
-0.0546,6534
0.108,1058
0.0557,3291
0.556,518
-0.0268,5716
0.84,197
0.0262,4104
-0.0168,6123
-0.129,7650
0.0182,4309
-0.229,8749
0.00687,4744
-0.0407,6893
0.0832,2642
-0.227,9540
-0.00567,5494
0.0432,3008
0.00201,4941
0.0761,1960
0.0973,1683
0.349,130
-0.115,7106
-0.272,9836
0.178,258
0.225,343
-0.167,9062
0.0846,2840
-0.154,8501
0.0418,4169
-0.0746,6589
0.2,327
-0.147,9714
0.124,2309
0.0692,2681
0.259,1895
-0.138,9940
0.00731,4847
0.0275,3682
-0.123,7507
-0.0224,6418
-0.243,8438
0.295,100
0.00396,4771
0.0102,4605
-0.0684,7214
0.00158,4923
-0.178,9215
0.0685,3810
0.0751,3036
0.0818,1968
-0.127,7965
-0.0489,6504
-0.00849,5043
0.103,2841
0.039,4250
-0.0252,6432
0.0301,3970
0.135,1814
-0.184,9602
0.554,50
-0.119,7890
-0.0768,8213
-0.123,7748
0.00194,5185
0.275,396
-0.228,9097
0.239,458
-0.347,10451
-0.206,9088
-0.0788,8018
-0.0674,7332
0.109,3660
0.208,1350
-0.0794,7474
0.0767,2382
-0.254,10275
0.0628,3584
0.0351,3633
0.11,1800
-0.138,9406
0.0565,4056
2.4,602
-0.449,8310
0.588,26
0.0251,4241
0.281,1860
-0.0388,6100
0.129,1948
0.296,613
0.181,1094
0.0883,1256
-0.117,7628
0.173,1742
0.014,4634
0.158,2131
0.0289,3883
0.0714,2000
-0.143,8527
0.0698,3162
-0.114,7158
-0.000211,5114
0.261,1111
0.0606,2619
-0.088,6557
-0.00947,5540
0.0101,4750
-0.227,10147
0.0858,1485
-0.066,7983
0.1,2208
0.036,3696
-0.258,8523
-0.466,8975
0.0781,1775
-0.0303,7090
-0.125,7797
-0.232,10048
-0.185,5609
-0.634,9770
0.0239,3825
-0.179,9666
-0.0262,5703
-0.00838,5609
-0.105,8392
0.256,428
-0.00361,5419
-0.0409,7432
0.0107,4695
-0.0329,6534
-0.0149,5765
0.107,1854
0.0312,2590
-0.0841,8093
0.00543,4700
0.0793,1845
0.164,2708
0.28,260
0.0858,1748
-0.0394,6394
-0.108,7345
0.1,3339
-0.0256,6117
0.381,537
0.0795,1861
-0.142,9387
-0.00338,6055
-0.158,6855
0.0214,2852
0.0113,4656
0.0129,4561
-0.172,6713
0.132,2621
-0.0365,6050
-0.141,8254
-0.314,8865
-0.308,10270
-0.347,8844
-0.238,9636
-0.238,10339
-0.0768,6249
0.766,211
-0.000664,4978
0.14,2141
0.261,552
0.0948,1873
-0.00842,5219
-0.48,9146
-0.464,9233
-0.00843,4993
0.263,293
-0.0623,6932
-0.0452,7105
0.167,872
-0.0962,7414
0.306,1033
0.187,1376
0.0558,1478
-0.0378,5883
0.177,675
0.044,3752
-0.0665,7037
0.377,479
0.0691,1874
-0.0674,8863
-0.105,8483
0.0159,4770
-0.0779,7968
-0.475,10357
-0.157,8713
0.162,872
0.254,332
-0.182,9442
0.115,3323
-0.112,6234
0.242,132
-0.0198,5839
-0.0576,7065
0.235,1071
0.133,2216
0.0609,3863
0.104,1700
0.138,1318
-0.0837,7574
0.0568,3393
-0.482,10058
-0.145,9011
-0.0104,5640
0.0771,2844
-0.104,7362
0.0238,4273
0.141,1637
0.175,2201
0.0519,3602
0.0993,583
0.101,3139
0.0889,3273
0.183,1466
-0.113,6871
-0.0484,6873
-0.093,8236
0.419,19
-0.0232,5520
0.286,1381
-0.0399,5403
0.108,418
0.106,549
0.00629,5032
-0.0464,6892
-0.143,6560
0.123,859
0.192,200
0.113,2743
-0.185,9383
-0.331,9982
0.493,193
-0.0563,6633
-0.148,9139
0.172,729
-0.166,9483
-0.134,9374
0.272,833
-0.116,8434
0.0428,3683
-0.15,10093
0.155,1898
-0.0216,5886
0.212,1246
-0.158,9490
0.0501,2349
0.0558,2584
0.0704,3713
-0.686,10433
0.312,842
0.343,377
-0.0525,6301
-0.0891,8490
0.066,2455
0.0785,2449
0.00163,5024
0.0355,4075
0.224,491
0.173,1305
-0.304,9297
-0.284,9946
0.19,2325
-0.173,8974
-0.0607,8010
0.144,2421
0.16,1730
-0.0164,6590
0.0619,4021
0.159,2192
-0.0364,7061
0.0683,2724
0.0847,2009
-0.301,4894
-0.288,8264
-0.406,10368
-0.0329,6315
-0.069,7532
-0.054,5726
0.218,2307
-0.0491,7152
0.0192,4202
0.329,651
-0.225,10269
0.0213,4221
0.0221,4565
0.0974,2583
-0.00469,5466
0.0882,2457
0.201,296
0.0099,4668
0.0961,1918
0.175,1923
-0.132,7177
-0.123,8701
-0.0224,5626
0.317,309
0.191,731
-0.044,5976
-0.225,9820
-0.0639,8804
-0.0941,9621
-0.175,6604
-0.671,8944
0.199,2948
-0.148,8140
0.18,161
0.0446,3250
-0.0861,7468
-0.326,10330
0.0319,4106
0.0475,3455
0.0168,4309
-0.0632,6057
0.0246,4545
0.0384,3946
-0.0393,6529
-0.115,8061
-0.162,9171
0.0619,3023
0.00588,4635
-0.0552,6478
-0.102,8014
-0.092,7181
0.0455,3655
0.0135,4484
0.0253,4408
0.155,1812
0.222,1752
-0.241,7061
-0.15,9194
0.0525,3332
-0.371,9977
-0.0909,6750
0.132,1495
0.0784,2926
0.15,679
-0.0773,8419
-0.0478,7702
-0.004,4891
0.00469,4789
-0.0112,5091
0.09,2314
-0.0438,6932
0.0969,2381
0.0656,3486
0.13,530
-0.251,8375
0.0309,3579
-0.0236,6081
0.0538,3855
-0.211,8193
0.103,2325
0.133,2420
0.0552,2740
0.17,2031
-0.234,10226
-0.234,9910
0.765,31
0.0394,3999
-0.0951,8754
0.222,307
-0.0222,5768
-0.0746,7283
0.203,1677
-0.0763,8355
-0.017,6115
0.369,593
-0.033,5049
-0.0348,6296
-0.203,9870
0.00113,4844
-0.149,9003
0.123,1045
0.395,280
0.497,76
-0.0154,5342
0.189,691
0.365,475
-0.00963,5160
-0.101,7641
-0.354,9777
-0.495,10293
0.121,1101
0.0823,2731
-0.0723,7635
-0.21,10014
0.49,145
-0.0955,6717
0.00521,5026
0.00514,4791
-0.29,9233
-0.108,9266
0.379,280
0.214,1523
-0.16,9231
0.278,311
0.144,249
-0.00063,5231
0.129,1225
-0.0282,5998
-0.00462,5213
-0.0549,7419
0.122,2631
-0.172,9238
0.0233,4337
0.0148,4726
0.119,3268
-0.0164,5743
0.11,2360
-0.0565,6683
-0.0278,5941
-0.0719,6256
0.148,1508
-0.0594,7601
-0.278,8977
-0.13,9192
0.366,81
0.321,420
0.00333,4975
-0.122,8952
-0.0114,5532
-0.292,9110
-0.189,8015
0.508,135
0.337,98
0.0898,2330
0.0106,4622
0.902,2
0.14,2003
0.44,83
0.00155,4952
-0.0141,5694
-0.124,6591
0.549,190
-0.507,10458
0.439,2328
0.18,1456
-0.242,9722
0.0817,2917
0.251,430
-0.0891,8532
-0.0664,7852
-0.248,9148
0.0458,3838
-0.211,9657
0.11,874
0.00134,5247
-0.122,9703
0.108,3235
0.0219,4536
-0.181,8421
0.109,1882
0.054,1582
-0.0735,7940
-0.219,9721
0.154,2713
-0.223,8697
-0.294,9411
-0.0607,7034
0.0333,3344
0.0727,2940
0.141,1818
-0.188,9606
-0.0785,7984
-0.113,9376
-0.155,7166
4.26,33
0.107,2862
0.0508,3485
0.073,3126
-0.227,9190
0.156,1601
0.0646,3420
-0.12,8175
-0.0926,8913
-0.0256,6218
-0.108,8371
-0.0571,6643
0.166,1280
-0.329,10127
0.0186,4342
-0.299,10381
0.159,1898
-0.0795,6550
0.121,2948
-0.00733,5317
0.168,1786
0.0923,3029
-0.264,10058
-0.119,8287
-0.0299,6533
0.0869,2875
-0.866,9054
-0.0449,6282
0.0408,4196
0.0752,1711
-0.0133,5798
-0.914,9756
-0.559,7549
0.127,2581
-0.114,7159
-0.321,9072
-0.0324,6378
0.111,1632
-0.0175,5154
-0.039,5500
-0.0784,6712
0.016,4490
0.123,1369
-0.0543,6312
-0.0638,6964
-0.0738,6600
-0.632,9946
0.0819,1630
-0.171,9559
-0.29,10335
-0.0399,5814
-0.192,9588
0.139,1793
-0.0541,7983
-0.0869,6808
-0.0248,5527
0.0189,4647
-0.0546,5820
-0.00919,5071
0.0759,3258
0.0337,3924
0.198,466
0.11,2747
-0.012,5723
-0.182,9485
-0.0375,8636
0.0357,2789
0.382,438
-0.0599,6667
-0.0258,6248
-0.125,8260
0.0487,3020
0.00298,4909
-0.171,7007
0.198,2221
-0.0288,5051
-0.0508,6119
-0.177,8940
-0.31,10054
-0.000399,5406
0.499,374
0.21,1546
-0.111,7832
0.0926,2175
0.0838,3202
0.132,2277
0.0437,4158
-0.0344,6054
-0.0325,5524
0.00858,4465
0.162,1177
0.0394,3206
0.158,1121
0.0375,4080
0.455,64
-0.109,8521
-0.0167,5831
0.14,973
-0.208,9640
0.158,3036
-0.0207,6211
-0.115,8521
-0.0726,8120
-0.112,7562
0.101,3364
-0.0584,7086
-0.437,10225
-0.0364,6472
-0.148,8007
0.207,633
-0.123,9280
-0.0416,7096
0.108,2143
0.133,1263
0.193,740
-0.105,7430
-0.137,9263
-0.154,9005
-0.0264,5554
-0.0506,7912
-0.141,9740
0.105,2575
-0.311,10333
0.0165,4413
-0.0255,6106
-0.0113,5664
-0.0957,7944
0.217,779
-0.116,8475
-0.0177,5247
-0.135,7777
-0.237,10074
-0.125,9706
-0.0747,7022
-0.819,10283
-0.122,7555
-0.24,9887
0.24,839
0.0207,4303
0.135,2268
-0.388,10056
0.0547,2166
0.52,3
-0.244,10123
-0.0993,8622
-0.746,9458
-0.219,9797
0.0557,3493
1.11,100
-0.0494,6972
0.131,2627
0.0611,3118
-0.00566,5176
-0.229,10311
0.476,296
-0.0273,6869
0.11,1309
0.0706,3483
0.0345,4310
-0.0132,5328
-0.0996,8957
0.0679,2214
0.0494,2348
0.014,4311
0.164,1612
0.0292,3906
-0.226,9917
-0.0821,8628
0.0766,2788
0.104,1958
-0.147,8212
-0.158,7805
-0.171,10086
-0.0949,8114
0.0252,4623
-0.683,10241
-0.058,7836
-0.114,6450
-0.0981,8165
-0.00499,5462
0.0973,3504
0.387,434
0.0497,3327
-0.0192,5953
-0.0334,5994
-0.0408,7071
-0.0649,6972
0.181,2353
-0.138,7551
-0.111,6649
-0.273,8196
-0.13,9136
0.0374,3456
-0.0304,6641
-0.235,9392
0.084,3120
-0.0539,6503
0.0724,2856
-0.0936,7894
-0.115,8094
0.0956,2315
-0.122,6684
-0.0849,6449
-0.0644,7454
0.00192,5248
-0.147,7881
0.119,1355
-0.0397,5693
-0.345,8278
-0.219,10428
-0.0644,6461
-0.208,9965
0.0628,2887
0.269,514
-0.184,7466
-0.126,8034
-0.207,9172
0.0523,3296
0.0394,4194
0.0971,2831
-0.155,9625
0.0406,3555
-0.384,10184
0.448,509
0.1,1717
0.673,188
0.279,891
-0.0505,8266
-0.0624,7138
-0.224,10235
0.0407,3297
0.0819,2961
-0.135,9251
0.00783,4844
-0.125,9634
-0.123,8644
0.147,2296
0.25,1596
0.0383,3679
0.0689,3170
0.0358,4112
-0.087,7344
0.022,4250
-0.122,9048
-0.375,9696
0.086,1384
-0.132,9672
-0.149,10219
-0.0645,7975
-0.174,10159
0.0472,3678
0.409,823
-0.3,10024
-0.0154,5719
-0.0704,6797
-0.212,8461
-0.0289,5729
-0.043,6231
-0.139,10472
-0.0737,7179
-0.0352,6140
0.0636,3764
0.628,110
0.137,1928
-0.106,7809
-0.0205,5506
0.0464,4094
0.0982,1919
-0.0553,7176
-0.0224,5751
-0.2,10334
0.378,213
-0.0251,6216
-0.121,6634
-0.0954,7080
0.365,131
-0.0635,7898
0.0851,3622
-0.162,10001
0.16,1558
0.0624,1670
0.344,370
0.0997,1150
0.36,119
-0.00106,5256
0.383,348
-0.382,9723
0.212,1858
0.00421,4954
-0.138,8437
-0.293,9895
0.12,3584
-0.0862,6774
0.0242,4183
-0.0198,5654
-0.0737,7055
0.0103,4804
0.107,1305
-0.132,7374
-0.0541,8368
0.0834,640
-0.104,7218
0.175,1937
-0.0729,8875
-0.13,6394
0.03,3547
0.0209,3928
-0.274,10157
-0.11,8009
-0.0843,6965
0.345,552
-0.0533,6428
0.0242,4137
0.178,639
0.0677,2779
-0.3,9896
0.123,1944
0.386,133
-0.042,7143
0.0274,4021
-0.582,10413
-0.0194,5338
0.256,723
0.0355,3278
-0.125,9372
-0.018,5916
-0.575,10467
0.0521,3957
-0.4,10408
0.0535,2711
-0.0624,8737
-0.154,7944
-0.328,9514
-0.455,10147
0.235,1765
0.894,85
0.123,2197
0.122,2093
-0.183,9729
0.0929,3616
0.194,1249
0.121,1270
-0.0962,6983
0.391,480
0.0476,3401
0.0288,4471
0.232,2309
0.0326,3542
0.0354,3926
0.333,434
-0.186,9055
-0.184,9233
-0.345,10385
-0.147,9300
-0.0728,7010
0.332,70
-0.203,9259
-0.602,9869
0.0674,3592
-0.0864,7854
-0.0301,5756
-0.0803,7388
0.0935,2554
-0.301,10338
0.141,1209
-0.204,9978
-0.174,9635
-0.16,9081
0.269,2494
0.0598,3439
-0.0886,7091
0.107,2096
-0.0369,7371
-0.206,9614
-0.171,8519
-0.034,6300
0.139,2691
-0.0755,9022
-0.0296,6721
0.0165,4604
-0.223,9942
0.0212,4387
0.253,370
0.0352,4191
0.119,1569
0.0021,4951
0.125,3115
0.0844,2942
-0.186,7685
-0.27,10107
0.105,1117
-0.186,8823
-0.0702,7208
0.0644,3199
0.536,887
0.0642,2718
0.0199,4121
0.283,288
0.0496,2886
0.133,1876
-0.163,8627
0.0349,4247
-0.0468,7094
0.233,490
-0.141,9513
-0.0834,6753
0.0326,3725
0.0868,1928
0.0294,4078
-0.0235,5009
0.413,527
-0.0998,6886
-0.0908,7964
0.115,887
-0.0167,6158
0.239,732
-0.253,8862
0.667,962
-0.22,6145
0.193,728
-0.0874,9160
-0.102,7877
0.0392,3794
0.0752,2732
0.134,2830
-0.0478,6924
0.0906,1719
-0.0896,7658
0.172,1510
-0.0542,7022
-0.164,7788
0.191,149
-0.119,8725
-0.202,8523
-0.265,10293
-0.173,9509
-0.0384,6143
-0.0895,8396
0.0478,3289
-0.162,9354
0.027,4152
0.192,1849
0.436,33
-0.123,9991
-0.0644,5584
-0.0666,8217
0.0476,3627
0.0595,3624
0.102,3545
0.106,1748
0.166,279
-0.171,8292
-0.392,10131
-0.282,9828
-0.319,9168
-0.325,10005
-0.284,9734
0.0934,3298
-0.068,6810
-0.00197,4962
0.119,1578
-0.043,7125
0.063,3473
-0.0712,8316
-0.239,9293
-0.26,10168
-0.559,10125
-0.00727,5195
-0.324,7261
-0.135,8231
0.224,1032
-0.0776,7261
0.14,1378
0.00383,4913
-0.158,8328
0.0634,3098
0.251,2274
0.0106,4533
-0.0576,6966
0.0126,4786
0.013,4576
-0.233,9960
-0.0881,6971
-0.164,9038
-0.341,10432
0.277,1435
-0.199,9281
-0.109,7677
-0.162,8680
-0.121,8840
0.126,1857
0.0159,4232
0.0457,4085
-0.269,6701
0.124,3194
-0.11,8493
0.336,325
-0.109,8949
-0.0864,6830
0.056,3662
0.05,3927
-0.0108,5677
0.292,181
-0.0591,7448
0.0068,4787
-0.0143,5560
0.00418,4991
-0.34,9508
-0.237,10235
-0.161,10341
0.0929,1531
-0.139,8895
-0.214,7985
-0.0658,5304
-0.117,9744
0.0674,1951
-0.192,8866
-0.28,9650
-0.29,7704
-0.014,5308
0.0281,4265
-0.00536,5405
-0.0751,7154
-0.13,7491
0.0553,2685
-0.0579,8114
0.0975,1040
0.0534,3137
-0.149,8999
0.34,35
-0.152,9119
0.115,1970
-0.0143,5542
-0.16,9592
-0.267,9785
-0.211,9905
-0.104,6811
0.273,1067
-0.205,9717
0.0487,3577
-0.343,10426
0.00329,4803
-0.145,5866
0.014,4653
0.0269,4323
-0.127,7937
-0.302,9381
0.0118,4461
-0.0505,6978
-0.0415,6232
-0.0896,9123
0.169,428
-0.276,9044
-0.184,9584
-0.118,8017
-0.145,8712
0.284,335
-0.291,10349
0.0333,4363
0.197,1168
-0.0677,6653
-0.386,10318
-0.222,9291
-0.12,8193
0.0661,3165
-0.141,5781
0.418,523
0.0874,3401
-0.0376,5765
-0.291,10436
0.248,771
0.166,830
-0.0966,6702
0.0183,4079
-0.127,9541
0.0218,3746
-0.275,9684
-0.142,6983
-0.0287,6735
0.182,1330
-0.0429,6822
0.128,1975
-0.0659,6648
0.0881,2579
0.248,2057
0.0143,4601
0.0235,4278
-0.264,10466
-0.0427,6851
-0.0271,6565
0.055,2677
0.15,896
-0.143,7806
-0.00603,5324
0.253,178
0.354,117
0.0982,2242
-0.134,9002
-0.169,7913
0.0356,3979
0.186,2381
-0.294,9270
0.0968,1116
0.0606,3197
-0.0836,7119
-0.0571,7355
-0.136,9636
0.0437,3422
0.0337,3895
0.151,1565
-0.21,9666
0.127,2865
-0.0593,7149
0.214,575
0.0573,3049
0.307,790
0.0297,4228
-0.17,10203
-0.0664,7232
0.00608,4774
-0.0218,5508
-0.0653,6230
-0.0672,6618
0.105,3112
-0.0567,7617
0.0117,4609
0.384,901
-0.0684,6685
-0.0812,6971
0.00238,5006
-0.019,5570
0.0601,3652
0.315,186
-0.0709,7502
-0.145,7445
-0.0435,7179
-0.0385,6328
0.00576,4774
-0.0655,7951
0.175,1805
-0.198,8562
-0.078,6970
0.213,1684
0.0512,3227
-0.09,7274
0.0616,3148
-0.0858,8043
-0.311,9689
0.0411,2964
0.173,605
0.32,1601
0.505,815
0.266,1209
0.306,108
-0.0406,8055
-0.0423,7063
0.407,1349
-0.441,9745
-0.302,10043
0.211,1252
-0.0331,5903
0.186,1635
0.162,2637
-0.553,7677
0.684,1852
-0.136,6551
-0.0566,7369
-0.0612,6546
0.157,1565
0.262,2719
0.0124,4695
0.0721,2477
0.168,22
-0.0631,6611
0.138,2208
0.188,608
-0.32,9361
0.0462,3727
0.0222,4094
-0.194,8303
-0.153,9123
-0.0531,5506
-0.0234,6020
0.103,2131
0.159,603
-0.141,8075
0.612,60
-0.317,9936
0.081,1487
-0.132,7421
-0.00707,5321
-0.209,9538
-0.0951,7219
0.0207,4426
0.0783,2635
0.0943,2689
-0.00503,5334
-0.126,9108
-0.04,5932
0.544,872
-0.00962,5502
0.0311,2781
0.034,3884
-0.103,6868
0.109,2348
-0.136,7258
0.00878,4757
0.453,6
0.231,1350
-0.277,9442
-0.00435,4967
0.684,180
-0.24,9299
-0.129,9496
-0.0548,6451
0.329,860
5.26e-05,5016
-0.431,9212
-0.102,8882
-0.169,9970
-0.136,8813
-0.134,8642
0.284,579
-0.0993,7542
0.121,2421
-0.0953,6928
0.27,523
0.0577,3751
-0.0395,5517
-0.206,7924
0.0199,4654
0.0732,2502
0.173,940
0.181,1123
-0.0136,5291
0.235,1332
-0.0134,5712
0.207,239
0.457,119
0.552,747
0.338,1619
-0.0708,6108
0.113,2256
-0.0911,9049
0.0834,2728
-0.391,9743
-0.405,9458
-0.187,9688
-0.0925,6848
-0.106,6877
0.134,1887
0.252,1266
0.162,2839
0.0771,2256
0.232,351
-0.126,9415
-0.0902,7219
0.0387,3935
0.0126,4581
-0.0286,6185
0.267,828
0.0721,1720
-0.203,8506
0.129,2545
0.245,1570
0.0477,3780
-0.0468,7393
-0.0403,6951
-0.0815,6342
-0.0577,6355
0.0454,4131
-0.0273,5884
0.0327,3920
-0.0628,7690
-0.139,8316
-0.17,9008
0.737,59
0.113,2596
-0.115,10237
0.0183,4306
-0.0534,6197
-0.185,9435
0.0263,4363
-0.119,7754
0.0305,4046
-0.0651,7535
-0.000756,5014
-0.538,9864
0.0905,3598
-0.0883,7215
-0.118,8721
0.252,310
-0.217,10157
0.263,419
-0.0521,6872
0.18,1780
-0.164,9903
-0.0592,7592
-0.0281,5508
-0.21,10146
-0.0261,6032
-0.0952,7046
0.0202,3775
0.0626,3413
0.00672,4810
-0.205,8504
0.0111,4929
-0.0786,5696
-0.175,9907
0.0622,3386
0.0782,3145
0.0389,3937
-0.0123,5261
0.545,28
-0.00497,5164
-0.063,7918
0.143,1284
0.0741,3602
-0.173,8133
-0.0528,6575
0.0921,704
-0.0978,8191
0.0167,4484
0.0223,4192
-0.0333,6317
0.277,751
-0.466,10431
-0.0872,9126
-0.186,10045
0.046,3741
0.168,1098
0.121,3134
-0.096,9236
-0.0751,8259
0.0246,4215
-0.0679,6330
-0.189,8391
-0.0811,5773
-0.214,10323
0.103,2142
-0.0767,8152
-0.0331,6311
0.042,3863
-0.195,9404
0.204,105
0.0622,2583
0.254,190
0.0597,3611
0.58,871
0.0702,3224
0.0821,2490
-0.107,7461
-0.057,6742
0.0336,4493
0.069,3182
-0.453,9068
-0.0275,5975
-0.107,8375
0.162,1235
0.0732,3002
-0.249,8487
0.0815,2960
-0.188,9998
0.123,486
-0.0792,7642
-0.117,8591
-0.122,7962
0.425,1253
0.0783,2887
-0.119,8344
-0.384,9398
-0.251,7501
0.0618,3219
-0.0247,5792
-0.0707,6973
-0.216,10052
0.0223,4366
0.214,804
-0.000344,4869
-0.113,7371
-0.0687,7650
0.145,1002
0.119,2022
0.154,781
0.0322,4362
0.0125,4942
0.553,5
0.0685,1107
-0.239,7531
-0.196,9521
-0.0793,8106
-0.0425,7160
-0.0224,6221
-0.0519,6826
0.172,879
0.0365,4103
0.117,3271
0.0499,1431
0.0739,1674
0.116,1548
-0.0436,6048
0.0653,3788
0.285,390
0.0951,3049
-0.0174,6097
-0.161,9676
0.211,853
-0.101,7191
-0.0624,6434
0.0893,2009
-0.0483,7891
0.015,4608
0.0324,4283
-0.0256,5898
0.0941,3237
-0.489,10439
-0.0681,6525
-0.0117,5849
-0.0446,5818
0.238,481
-0.473,10259
-0.136,9644
-0.00765,5815
-0.0346,6547
0.34,655
-0.109,6607
-0.186,8962
0.0699,2613
0.0253,3706
0.11,1521
0.042,3787
0.0212,4765
-0.136,6653
-0.129,7669
0.102,1802
0.0539,2994
-0.375,9694
-0.255,9039
-0.239,9971
0.258,1027
0.0409,3238
0.0334,4058
0.0075,4910
0.0273,4100
-0.258,9670
-0.113,8885
-0.657,8213
0.0181,4854
-0.482,10283
-0.245,10175
-0.446,10149
0.0315,4237
0.0345,2718
-0.16,8926
2.06,219
-0.0598,5964
-0.307,9422
-0.18,7603
0.053,2822
-0.0135,5965
-0.839,9816
0.15,3695
2.18,385
0.112,2741
0.387,1415
-0.274,8615
0.322,1292
0.147,3137
-0.0248,6081
-0.0609,7193
-0.854,8971
-0.824,9593
0.0225,4632
0.0167,4471
-0.101,9014
0.14,3902
0.0411,4309
0.102,3532
0.217,1800
-0.0323,5915
0.0364,3209
-0.298,8727
-0.176,10416
-0.0709,6642
0.0345,4030
0.0559,3774
-1.03,10268
-0.174,9074
-0.0361,5751
0.195,1334
-0.0353,6006
0.517,1948
0.249,2181
0.244,621
-0.412,8421
0.0607,3973
0.0553,3347
0.306,1834
-0.226,9373
-0.162,8251
-0.154,4677
0.105,1444
0.37,9
-0.0752,7107
0.167,385
-0.311,9968
0.0365,4215
-0.00104,4920
0.0436,3329
0.469,130
0.00516,4919
0.145,1892
0.144,2000
0.147,1314
0.178,2320
0.0624,3195
0.223,132
-0.123,10293
0.041,4035
-0.135,9113
-0.258,10303
0.147,841
-0.0373,7397
0.203,482
0.27,3174
0.274,2941
-0.154,6324
0.061,3996
0.154,3281
-0.256,10309
0.273,556
0.26,1594
-0.0373,6295
0.0479,3504
-0.0522,8075
0.53,11
-0.201,9227
0.0036,4806
0.114,2579
-0.0884,8399
0.0927,2640
0.213,2956
0.0058,4862
-0.086,7860
0.144,2351
-0.0154,5826
0.00307,4977
-0.0549,6937
-0.00266,4913
0.039,3480
-0.0507,6713
-0.122,8800
0.00293,4795
0.0206,4070
0.00124,4847
0.0965,2299
0.0923,2933
0.152,127
-0.108,8054
-0.147,8122
-0.145,9754
-0.178,7756
-0.0549,6398
-0.12,9889
0.0429,1127
-0.134,8532
-0.0329,5495
-0.0599,7838
0.0576,3080
0.419,92
0.0503,3327
0.356,196
-0.176,7366
-0.17,8081
0.256,275
0.274,133
-0.149,8266
0.0119,4595
-0.108,6829
0.304,525
-0.0274,5539
-0.118,10078
0.0486,3148
-0.336,10455
-0.131,8566
-0.0474,5763
-0.361,10245
-0.18,9634
-0.0244,5970
-0.1,9803
-0.0622,6762
0.136,2088
0.0313,3986
0.262,673
0.146,1461
0.139,2126
-0.0462,5955
-0.375,9793
-0.444,8807
-0.083,8791
0.0415,3446
-0.0489,7343
0.305,184
-0.173,6892
0.102,1128
-0.00342,5236
0.0219,4527
0.281,718
-0.157,8055
-0.38,10443
0.0715,2902
-0.0729,7204
-0.0396,7256
0.204,398
-0.0696,7179
-0.272,8384
0.123,3431
0.0551,2853
-0.0954,9345
-0.38,9769
-0.12,7493
0.459,1192
0.0966,3565
0.106,2860
0.101,3122
-0.307,7863
0.274,659
-0.313,7172
0.252,1059
-0.26,8938
0.504,642
-0.0983,8066
-0.0828,8616
0.124,2908
-0.106,7033
-0.0132,6316
0.0817,3370
-0.0471,7449
0.0892,2134
0.0389,3881
-0.162,9027
0.101,1016
0.138,992
0.139,1875
0.0241,4332
-0.00727,5194
0.226,408
0.0685,2814
-0.107,9468
0.0875,2901
-0.0903,6818
-0.303,9441
0.169,1208
-0.132,9899
0.0286,4286
0.0511,3478
0.0674,2247
-0.146,7834
0.24,2138
-0.0537,7970
-0.105,9738
0.0576,3610
-0.0595,6658
0.0952,717
-0.158,8784
0.0684,1911
-0.0545,7203
-0.136,7031
0.157,2264
0.077,3439
-0.233,9707
0.248,634
0.144,77
-0.0303,6002
0.136,1326
0.107,2112
-0.297,10145
-0.0054,5300
0.281,36
-0.0299,5577
-0.167,10066
0.0787,3118
-0.483,10425
-0.00922,5450
0.207,645
-0.0292,5648
-0.198,7777
0.154,2269
0.00173,4785
0.0636,3001
0.0125,4686
-0.0807,7104
-0.0555,7840
0.115,1954
0.175,2622
0.168,2115
-0.118,8770
0.0963,2877
0.0638,3058
0.207,1528
0.0352,3983
0.12,2592
0.0291,4352
-0.169,8765
0.116,2924
-0.298,9132
-0.0829,7023
0.165,200
-0.0666,6930
-0.136,8249
-0.261,9714
-0.126,2428
-0.102,9582
0.0233,4211
-0.0584,7221
-0.193,8491
-0.822,10287
-0.424,10362
0.138,3004
0.179,1003
-0.123,7696
-0.21,8105
-0.079,8145
0.00685,4744
-0.0485,7191
0.0144,4739
0.139,770
-0.138,9466
-0.104,8937
-0.201,9061
-0.219,9669
-0.103,9408
-0.207,8855
-0.0454,6310
0.0025,4852
0.0972,3221
0.00197,4540
0.0979,2803
-0.0745,9484
-0.0212,5532
0.00973,4794
-0.0348,6473
-0.162,8789
0.253,1148
0.0154,4080
-1.06,10152
-0.631,7745
-0.803,8733
-0.126,5349
1.08,682
-0.198,4967
0.0577,2922
0.128,2678
0.132,1735
0.0324,4112
0.0764,1947
-0.0139,5432
-0.00893,5115
0.0532,3716
-0.232,9835
0.0693,3270
-0.101,9848
-0.0369,5816
0.266,975
0.237,1901
0.0127,4749
-0.0364,6004
-0.0868,6965
0.147,1315
-0.0597,7505
0.0286,4059
0.0295,4310
0.084,1189
-0.0417,7431
-0.0369,6776
0.0148,4303
0.0406,3744
0.207,2351
0.196,114
-0.00334,5210
0.172,1322
-0.0436,6476
0.000479,5007
-0.0818,6119
0.0235,4557
-0.0491,7648
0.197,1661
0.136,2310
0.11,2292
0.201,610
-0.0378,6485
0.18,2383
0.013,4435
-0.253,8802
0.0784,2545
0.0538,2766
-0.0515,7148
0.122,2744
0.283,1776
0.195,2118
0.0726,3710
-0.0469,6883
-0.22,9576
-0.0318,6005
0.0656,3271
0.0344,4344
-0.0843,8283
-0.0238,5905
-0.213,9203
-0.0394,6043
-0.177,9704
0.352,229
-0.0912,8275
-0.0923,9028
-0.215,9986
-0.039,6426
0.397,485
-0.152,7811
-0.0487,6333
0.0506,2460
-0.166,9593
0.137,524
0.0351,4083
0.238,918
0.0704,2574
0.0385,3999
-0.179,9953
-0.035,6263
0.0435,3490
-0.00683,5266
0.295,58
-0.17,10237
-0.18,9685
0.029,3964
-0.608,10472
-0.0928,8448
-0.0322,7244
-0.0745,8180
0.0543,2851
-0.288,9668
0.0858,3034
-0.0392,6742
0.177,353
-0.141,10086
-0.0977,7534
-0.0247,5893
-0.351,10271
0.116,2419
-0.104,9478
0.165,243
0.0795,3405
0.156,1869
0.0575,3221
0.0468,3621
0.087,2630
0.0763,2790
0.0874,2535
0.0499,3821
0.169,1818
-0.0479,7876
-0.121,8212
-0.204,9948
0.304,1883
0.0697,3687
-0.5,9901
-0.0763,7800
0.0964,1310
0.0845,3376
-0.0695,5814
0.0421,4099
0.0414,4071
-0.103,8493
-0.117,9152
-0.0147,5782
-0.213,9506
-0.0559,6423
-0.273,9232
-0.0201,6299
-0.013,5853
1.51,595
0.333,690
0.0606,3441
0.00982,4886
-0.00608,5735
0.0681,2470
0.22,1051
-0.532,10352
-0.118,8966
-0.147,8177
-0.00269,5207
0.0864,1993
0.0638,2288
0.0898,2448
0.0369,4039
-0.118,8216
-0.000146,5294
-0.158,10355
0.0122,4806
-0.196,9025
-0.236,9607
0.00512,4624
-0.213,9389
-0.0704,6452
0.0319,4509
0.119,1930
0.0411,4053
-0.253,8770
-0.0462,6413
0.0488,2411
0.168,158
0.189,131
0.2,1539
0.274,184
0.0586,3374
-0.16,10220
0.0719,2016
-0.104,7692
0.0358,3853
-0.244,9876
0.0351,3762
-0.0817,8753
-0.353,9333
0.498,1304
0.112,2767
0.0296,4144
0.03,4325
-0.0797,8436
0.0471,3763
-0.101,7513
-0.237,8245
-0.315,8760
-0.107,8673
-0.0925,8051
0.0555,2286
-0.0925,6979
-0.0049,4873
-0.00439,4983
-0.0927,9531
0.12,711
0.248,788
0.188,1043
-0.124,6186
-0.304,9531
0.31,153
1.01,502
-0.0485,6080
-0.377,10165
0.16,2348
-0.0592,7914
-0.0741,8392
0.4,795
-0.1,8108
-0.106,8283
-0.297,8801
-0.444,10474
0.0603,3220
-0.174,8742
-0.0979,8632
-0.26,6883
0.395,283
0.00681,4911
-0.155,9187
-0.0513,8404
0.476,1055
-0.102,8479
-0.00177,5172
-0.0136,5396
0.0965,2297
0.229,766
-0.09,8016
-0.00447,5281
0.189,1818
-0.173,9107
-0.105,9196
0.0647,748
-0.25,8893
0.201,486
0.0409,3833
0.184,1389
-0.11,8108
0.0363,3746
-0.138,9640
-0.0527,6253
-0.0629,7196
-0.0603,6833
0.0734,2082
-0.0584,7345
0.00301,4951
0.0467,3943
0.0508,3058
0.189,1056
-0.188,8946
0.0345,3759
-0.115,6315
0.136,1977
-0.123,8583
-0.0194,4466
0.127,1899
-0.0263,7284
0.115,580
0.0203,4383
-0.194,9403
-0.131,8560
0.093,1853
-0.0315,6048
-0.0651,7261
-0.0108,5037
0.155,1779
0.0875,2233
-0.0783,8879
-0.0183,5398
-0.0168,5820
0.0399,3354
0.283,2319
0.537,337
0.00522,4668
-0.127,9443
-0.127,7401
0.0935,2226
0.461,205
-0.0954,7861
0.094,2327
0.043,3662
0.183,932
-0.254,8533
-0.466,10443
-0.0373,6586
-0.136,8960
0.0503,2560
0.0111,4622
0.246,353
-0.249,9925
-0.148,8384
-0.0461,6703
-0.139,8791
0.0734,3054
0.0589,2711
0.154,1465
0.053,3018
0.0168,4453
-0.0511,6587
-0.0997,8883
-0.1,8084
-0.111,7878
0.153,1743
0.182,262
-0.0393,8438
0.381,112
0.0975,1901
0.512,145
0.0591,3914
-0.0967,7888
0.115,742
-0.013,5287
-0.013,6134
0.0223,3931
-0.0448,8202
0.073,3066
-0.0492,7700
0.0455,3636
-0.0563,7436
0.691,600
-0.333,10124
-0.152,9599
-0.089,7218
0.0457,3987
-0.0694,7257
0.286,2065
-0.261,10356
-0.0116,5050
0.0267,4389
-0.0961,6649
0.1,2719
0.0963,2810
0.0725,3418
0.157,1500
-0.0201,6093
-0.164,9834
-0.109,5863
-0.127,7905
-0.125,9075
-0.176,8569
-0.1,9760
0.00328,4908
0.334,78
-0.411,10279
0.172,2779
0.108,1771
0.0573,2356
-0.0323,5662
0.00364,4794
0.125,2114
0.375,523
0.254,65
-0.0828,7837
-0.131,9141
0.102,2564
-0.379,10351
0.128,2389
0.0133,4052
0.0264,3837
-0.0832,7551
0.0504,3918
0.0363,3834
0.276,857
-0.13,8847
0.13,2071
-0.129,9390
-0.0449,6782
-0.117,8115
-0.19,8876
0.102,2679
0.051,3802
0.268,1196
0.0428,3697
0.272,835
-0.08,8598
0.211,538
-0.0417,6906
-0.0932,8862
0.0464,2980
-0.273,10433
0.385,227
-0.205,10169
-0.0296,6350
-0.0279,6347
0.0189,4237
0.0367,4075
-0.209,8622
-0.0103,6012
-0.0206,6209
-0.272,9642
0.0225,4391
-0.0672,8192
0.0463,3879
0.0476,3317
0.0212,4313
0.2,922
0.172,1312
0.0212,4747
0.342,219
-0.0971,8551
-0.0628,8499
0.137,1431
0.48,740
-0.0585,7265
0.254,1454
-0.2,9264
-0.0266,6704
-0.108,9939
-0.0334,6086
-0.0895,7797
0.745,1830
-0.0411,7348
0.174,2166
-0.2,9349
0.198,1730
-0.0603,6286
-0.0158,4955
0.00451,4881
0.032,2931
0.166,584
0.179,2205
-0.237,10275
-0.0113,5521
-0.0268,6140
-0.0177,5694
-0.0245,5213
0.122,2694
-0.0757,7042
-0.0879,8757
0.162,1579
-0.144,9897
-0.0547,6592
0.122,1743
0.254,1909
-0.177,9878
0.471,520
0.296,2263
-0.0919,9891
-0.0268,6592
0.136,1367
0.0609,3355
-0.187,10048
0.0983,3868
0.0493,3340
0.217,373
-0.0165,5904
-0.0849,7439
-0.222,10258
-0.00846,4739
0.18,260
-0.0398,7025
0.245,1460
0.0343,3976
0.023,4355
0.0759,3559
0.0567,3587
0.0626,1840
-0.291,10024
0.0724,2863
-0.128,8580
-0.315,10011
-0.0367,8810
-0.161,9294
0.0433,3662
0.166,1932
-0.118,9476
-0.0657,7176
-0.0376,6450
-0.163,10305
-0.115,6862
0.00792,4580
0.128,2007
0.0116,4720
0.0467,3320
0.129,1087
-0.0401,6582
-0.27,8448
-0.183,9267
-0.0971,8289
0.0942,2386
0.123,907
-0.0543,6324
0.147,2795
-0.642,10422
-0.0635,8516
0.0523,3795
-0.173,10167
-0.189,9560
-0.291,10336
-0.131,8750
0.0689,3801
0.13,710
-0.0703,7300
-0.429,10393
-0.131,8837
-0.103,7299
-0.172,9294
0.0659,2027
-0.0807,8003
0.0394,4040
0.0678,3417
-0.145,7500
0.171,2940
0.233,280
0.172,296
-0.128,9460
-0.186,7658
-0.139,8871
-0.047,7244
0.0721,2386
0.0299,4050
0.087,3334
-0.18,7774
0.0646,3061
0.0909,1946
0.573,0
-0.335,9951
0.0364,3721
0.0945,2647
0.144,2431
0.131,1391
-0.1,9479
-0.0123,5499
0.232,1535
-0.163,8792
-0.503,10440
0.0106,4809
0.197,565
0.147,1669
-0.256,9064
0.059,3596
-0.0675,7159
-1.36,10403
-0.035,6288
0.0866,1301
-0.00459,5122
0.148,1577
-0.047,7338
0.108,3061
0.129,745
-0.00429,5253
0.0216,4373
-0.00229,5272
-0.15,9002
-0.0256,5636
0.0305,2889
0.0331,3851
0.448,220
0.00683,4884
-0.28,9191
-0.00762,5603
0.149,548
0.0147,4462
0.155,1549
0.00668,5024
-0.0731,7194
-0.00643,5805
-0.0267,5901
-0.0753,7516
0.318,883
-0.0256,5680
-0.0404,6275
0.0895,3813
-0.0918,6634
0.101,2608
0.062,3247
0.103,3341
0.23,1787
0.05,3773
-0.302,9827
0.27,714
-0.193,9221
0.0306,4018
-0.0315,5932
-0.0455,5997
0.0214,4123
0.0682,2980
-0.225,7760
0.598,963
-0.0356,5588
0.202,1636
-0.164,10130
0.0144,4541
-0.14,8109
0.0113,4663
-0.00684,5401
0.175,1553
0.0596,1409
0.0282,4169
0.0356,4062
0.022,4353
-0.248,10011
0.319,1318
-0.0215,5890
0.186,951
-0.102,7024
-0.0434,5648
-0.0635,5974
-0.034,6226
0.172,866
-0.0899,8573
0.128,1830
0.287,317
0.0752,3198
0.165,1357
-0.0426,6366
-0.11,7619
0.00586,4791
-0.0185,5700
0.00537,5017
0.11,1776
0.0278,3931
0.048,3792
0.0524,3683
0.262,865
0.0768,2979
-0.175,8870
0.0727,2963
0.0228,4371
-0.0358,5852
0.212,432
0.522,411
-0.0433,6401
-0.103,9893
0.0109,4865
0.0274,4285
0.054,3064
0.131,2720
-0.137,9655
-0.0967,7916
0.00516,4640
0.0437,3976
0.0821,3355
-0.0109,4986
-0.143,8540
-0.309,10475
-0.405,10473
0.134,627
-0.178,9427
0.0588,2462
0.0804,2385
-0.0114,5687
0.0889,2987
-0.194,7764
-0.00805,4007
1.11,1395
0.135,2820
0.312,1777
0.0544,3261
0.105,1833
0.0481,3896
0.0898,3191
-0.0426,4832
-0.103,7523
-0.0223,6449
0.0887,1714
-0.155,9702
0.151,293
-0.403,10175
-0.0415,7104
-0.0121,5654
-0.248,7598
0.0769,3297
0.0623,3835
-0.131,6194
-0.0296,6183
-0.0317,6189
-0.0578,6791
0.1,2408
-0.0761,7228
0.0975,1872
-0.214,10408
-0.0126,5446
-0.293,10307
-0.0594,7340
-0.0235,5927
-0.916,9298
0.204,1067
0.0942,2021
-0.192,10334
-0.121,10003
-0.171,8904
-0.167,9555
0.11,2165
0.325,378
-0.101,7607
0.112,1667
-0.236,9703
-0.0371,6638
0.136,823
-0.062,7713
-0.147,9555
-0.17,8046
0.142,818
-0.0904,7188
-0.00258,5358
-0.0837,8257
0.0766,3572
0.0317,3501
-0.025,6400
-0.222,8958
0.0786,727
0.0179,4257
-0.11,8822
-0.0169,4643
0.286,1070
-0.186,8735
0.0397,3275
-0.154,9271
0.134,2322
-0.0274,5514
0.588,304
0.171,1638
0.0799,2453
-0.131,9136
-0.28,7562
-0.102,8451
0.0241,4489
-0.125,6766
0.0102,4813
0.152,1238
-0.0597,6598
0.499,232
-0.0759,6603
0.12,2541
-0.265,10410
-0.112,8961
0.135,1809
-0.0983,8602
-0.364,10257
-0.0618,6975
0.174,524
-0.02,6000
-0.159,9734
-0.154,8191
-0.0668,7039
-0.144,9817
0.0872,2049
0.107,1391
-0.0918,7459
0.125,2150
0.846,1812
-0.00198,4944
-0.0178,5716
-0.0602,7712
-0.0122,5499
-0.0132,5361
-0.557,10074
-0.0116,5964
0.0919,1195
-0.0726,8644
0.0744,3260
-0.0655,6799
0.429,745
-0.193,7595
-0.0696,8283
-0.285,9429
0.26,2383
0.0819,2870
-0.311,9557
0.249,343
-0.0715,6762
0.099,1210
0.041,3560
-0.00244,4832
-0.021,6396
0.0168,4547
-0.108,8529
0.043,3578
-0.143,7169
0.294,1271
0.221,2392
-0.0135,5596
-0.189,10033
-0.0247,5807
-0.252,9904
0.137,2398
-0.39,9742
-0.0168,5779
0.0789,1676
-0.257,9858
-0.0413,6799
0.0441,3920
-0.0333,5684
-0.128,8939
-0.238,9454
-0.0641,8252
0.134,1510
0.148,1492
-0.103,6588
-0.119,6841
0.0251,4248
0.0602,3365
-0.0209,6088
0.00205,5039
-0.0164,5726
-0.0541,6435
0.0893,1905
-0.0109,5758
-0.107,7662
0.114,2255
0.229,961
-0.121,7512
-0.141,9596
-0.0229,6145
0.0378,3802
0.0714,1864
0.877,138
-0.221,7787
-0.0432,6502
-0.154,9401
0.0367,156
-0.093,7090
-0.324,10391
-0.102,8726
0.104,3328
-0.096,8337
0.153,860
0.263,624
-0.221,9323
0.00631,4903
0.332,938
0.198,310
-0.0076,5431
-0.148,9645
-0.258,8101
-0.0526,6505
-0.199,7243
-0.061,7204
-0.156,9723
-0.261,10129
0.0319,3980
-0.0471,6714
-0.00543,5150
0.0364,3890
0.00887,4823
-0.106,6859
0.195,1341
0.0964,3428
-0.238,6946
-0.0219,5776
0.122,1644
0.017,4253
-0.258,9852
0.196,2903
-0.0451,6698
-0.106,8682
0.0434,3660
0.077,3668
0.145,900
0.0869,2872
0.0695,2549
-0.214,8747
-0.123,9309
0.326,218
0.236,645
-0.13,8773
0.0534,3773
0.0584,2446
-0.0582,7607
0.116,1742
0.118,1704
-0.275,7932
0.272,308
0.111,1417
0.0723,2085
-0.0514,6810
-0.131,4835
-0.573,10182
-0.421,10279
-0.0414,6811
0.0598,4126
-0.0125,5462
0.0108,4723
-0.239,9758
-0.129,7640
0.241,197
0.00983,4620
0.0426,4161
-0.15,8762
-0.0055,5342
0.0491,3936
-0.0874,6675
0.016,4338
-0.0613,6779
0.286,271
-0.00353,5327
-0.0604,6218
0.0171,4649
0.044,3250
-0.144,8673
-0.351,9205
0.0535,2354
-0.219,8426
0.0316,3951
-0.0228,7206
0.0669,2375
-0.168,6194
-0.205,7772
0.0869,2087
0.011,4796
0.0914,1328
0.026,4316
0.0558,3670
0.491,451
0.0445,4292
0.0482,3092
0.313,596
-0.125,8058
0.405,185
0.00306,4986
-0.453,9972
0.12,1501
0.0405,3954
-0.155,8364
-0.0987,8347
0.21,1376
-0.0822,6614
-0.0643,7326
0.172,661
0.257,319
0.242,140
-0.0345,6583
-0.21,9896
-0.205,9480
0.00527,4731
-0.252,10380
0.047,3403
-0.0473,6712
-0.0541,6362
0.0504,2551
0.0376,2314
0.153,1882
-0.152,9139
0.0399,4284
0.00663,4906
-0.15,9581
0.0204,4460
-0.0392,5740
-0.272,10377
0.175,683
-0.0381,8048
-0.0133,5468
-0.149,8806
-0.0118,5728
0.0336,3879
-0.409,10429
0.276,612
0.122,1367
-0.0375,6731
-0.208,9650
-0.0233,5708
-0.0749,6737
-0.119,7261
0.201,99
0.104,2451
-0.278,9601
-0.00125,5227
0.256,1702
0.0575,2675
-0.374,10349
0.0827,2548
-0.00789,5442
0.2,1254
-0.101,6807
0.0456,4057
-0.0385,6038
0.131,2464
-0.00619,5135
-0.149,9982
-0.22,7904
0.664,24
-0.0197,6382
0.131,1066
0.0213,3932
0.0204,4304
-0.0238,6318
0.246,666
-0.065,7292
-0.128,9495
-0.14,8440
-0.165,8348
-0.211,8623
0.0518,3926
-0.0367,6819
-0.026,6470
0.221,1032
-0.16,8198
0.287,1735
-0.212,9642
-0.0838,8318
-0.335,9485
-0.0329,5641
-0.2,6504
0.733,1209
0.0931,3492
-0.0589,6530
0.349,152
-0.00226,4902
-0.00688,4899
0.141,1251
-0.0387,6972
0.0212,4457
-0.173,7336
-0.336,10301
0.256,450
0.187,905
-0.271,10417
0.139,554
-0.0833,6654
-0.108,8237
-0.126,7466
0.0478,4022
-0.0623,7345
0.0505,2892
0.114,978
0.239,1301
0.0138,4649
0.0697,3814
0.0803,2326
0.176,17
0.0296,4404
-0.186,8709
-0.103,6570
0.0285,3964
0.129,853
0.284,315
-0.021,6033
-0.215,9473
-0.0129,5645
-0.114,7550
0.0256,3422
-0.00921,5672
0.235,1060
-0.0563,6413
-0.108,8946
-0.0994,7172
-0.0431,7255
-0.12,9339
-0.00233,5493
0.301,483
-0.204,9278
0.0524,3940
-0.0481,7067
-0.00693,5650
-0.142,9000
-0.278,9293
-0.264,8210
-0.503,10369
0.0667,1989
-0.00199,5343
0.403,23
0.697,1
0.291,345
-0.137,8254
0.318,31
0.115,1807
-0.0862,7567
-0.0286,5796
-0.0789,7713
-0.126,8854
-0.11,9190
0.11,1118
-0.0274,5832
0.0386,3851
-0.124,6858
-0.221,9882
0.00119,5087
-0.0127,6093
0.0235,4548
0.222,887
0.0284,4014
-0.123,7926
0.161,192
0.0705,3157
0.00969,4718
-0.0733,6484
0.171,176
-0.197,9392
0.0883,1844
-0.0336,6451
0.0697,3248
-0.00532,5426
-0.0891,7556
-0.0418,4529
0.00798,4802
0.119,1110
0.0332,4072
0.18,1724
0.55,595
-0.462,8406
-0.0459,6483
-0.017,5903
-0.0846,7697
0.163,1061
-0.17,6037
-0.0331,4907
0.109,2867
0.0508,3244
-0.114,8609
-0.268,10013
-0.0467,5624
-0.116,8850
0.134,1575
-0.352,9812
0.0879,2898
0.0311,4174
-0.351,9631
0.0379,4128
0.0153,4315
-0.0423,6071
-0.116,8759
0.414,59
0.154,898
0.0721,2896
0.0122,4112
0.066,2816
0.0368,4005
0.0187,4631
-0.0217,5652
0.267,1676
-0.0743,8153
0.00208,5036
-0.0208,5926
-0.367,10244
-0.022,5586
0.0478,3703
0.139,1597
0.254,1464
0.436,545
0.0296,4299
-0.0524,6403
0.0954,2758
-0.135,9059
-0.131,8499
0.0239,4248
0.137,2047
0.136,2903
0.376,1067
-0.0372,6646
0.295,424
0.0615,3774
-0.335,9833
-0.0773,6035
-0.0545,7611
0.000712,5069
0.117,2315
-0.17,9599
-0.246,10187
-0.427,8509
-0.126,9343
0.288,104
0.0905,2708
-0.0129,5418
0.0202,4183
-0.0856,8173
-0.092,8479
-0.128,8388
-0.0749,7228
0.0261,4133
0.0968,1483
0.0817,3185
0.179,1412
0.0866,2308
0.0779,2112
0.207,1303
0.14,2095
0.177,1276
-0.0249,5470
-0.0702,8568
0.0579,2347
-0.163,9571
-0.0606,6300
0.0531,3774
-0.287,9486
0.127,1602
0.173,662
-0.0353,6716
0.0494,3757
-0.111,7522
0.389,149
-0.064,8180
0.0033,4978
-0.101,8135
-0.287,10129
0.139,1312
-0.172,9512
-0.00678,5620
-0.0422,6867
0.125,2106
-0.214,8319
0.0915,3643
0.0428,4145
-0.0145,6162
0.0315,3331
0.0167,4654
0.299,69
0.189,2558
-0.0891,7072
-0.107,8380
0.0181,3862
0.14,872
-0.0223,6033
0.0083,4498
0.108,2341
0.147,1126
-0.27,9994
-0.26,10213
-0.356,10336
-0.3,10289
0.132,2662
0.012,4455
-0.039,6586
0.0944,2553
0.011,4741
0.0763,3109
0.343,262
-0.0869,7890
-0.068,7717
-0.00084,5194
0.317,1416
-0.582,8763
0.196,2818
0.0446,2884
-0.32,10324
-0.127,8350
0.145,2206
0.0124,4763
-0.1,6096
-0.00866,5874
0.0402,3333
-0.279,9403
-0.131,8193
1.03,348
0.136,2786
-0.0454,6838
-0.965,10380
-0.00813,5351
-0.0955,8456
-0.111,8973
-0.0276,5351
0.13,1714
-0.0275,6235
0.153,1400
-0.036,5683
-0.098,7846
-0.221,7664
-0.0762,7018
-0.0768,7161
0.243,751
0.138,1226
0.0307,4528
-0.166,9472
-0.144,9798
-0.0412,8489
0.194,2895
0.101,2622
0.152,1558
-0.0135,5439
-0.239,9708
0.000517,5081
0.0616,3391
-0.0759,5803
-0.0595,6841
-0.0614,6071
-0.346,10327
0.03,4447
0.256,1707
-0.0703,6677
0.565,85
-0.397,10096
-0.322,9717
-0.0842,8790
0.272,407
0.0905,2154
-0.00685,5138
0.0179,4564
-0.00211,4991
-0.0313,7476
0.192,1169
-0.0344,6295
0.195,2731
0.0111,4827
-0.189,9974
-0.357,10404
0.0958,3017
-0.0703,6526
-0.0398,5755
0.949,711
-0.212,10470
0.0194,4666
-0.0347,6619
-0.197,7273
0.0382,4179
-0.109,8314
-0.0105,6049
-0.109,9311
0.295,1062
0.0926,2780
-0.0282,5672
-0.102,6357
0.0238,3971
-0.00833,5358
-0.293,9347
-0.209,9705
0.201,2216
-0.272,10135
0.183,777
-0.0461,7136
-0.00997,5592
-0.163,8847
0.276,1090
0.0546,2947
0.0543,3557
0.193,691
0.0966,1520
-0.137,8808
-0.0607,6735
0.0661,3861
-0.0159,5586
-0.117,9681
-0.204,9892
0.0231,4152
-0.195,7956
-0.241,10385
0.114,1822
0.389,360
-0.0371,5541
0.133,1582
0.0506,3564
-0.261,9445
-0.0686,8197
-0.00148,5056
-0.056,7081
0.276,1243
0.713,298
-0.229,8299
0.00808,4579
0.032,3657
0.000762,4960
-0.0242,6162
0.0211,3980
-0.345,8977
0.0548,2571
-0.109,8930
-0.095,8168
0.0744,3532
0.24,2109
0.292,958
0.0138,4519
0.0269,3762
0.398,577
-0.0248,5768
0.3,1214
-0.169,7513
0.00827,4918
0.0505,3202
0.158,1909
-0.187,9636
0.181,2052
0.112,2970
0.134,302
0.00752,4918
-0.323,8752
-0.28,10110
-0.142,7205
0.00176,5101
-0.0174,6328
-0.0565,7710
-0.0637,6053
0.119,2031
0.247,1192
-0.297,10095
0.0225,4510
-0.0274,6538
0.0843,3499
0.188,948
0.117,1732
-0.134,9212
0.0457,3807
0.0583,1256
-0.162,9535
-0.0559,7285
-0.00509,5185
-0.00852,5078
0.134,535
0.0581,3940
0.0142,4221
-0.0113,5837
0.234,407
-0.112,7521
0.117,1779
-0.0589,7667
0.013,4641
0.103,2455
0.0504,3466
-0.281,9840
-0.0793,7129
0.124,1533
-0.00143,5135
0.256,1210
0.0469,3682
0.422,554
-0.47,10318
-0.0665,9184
0.0239,3587
-0.85,10197
-0.355,9589
0.684,1531
0.0259,4362
0.224,537
0.0933,1031
0.362,409
-0.0341,6405
-0.138,8049
-0.0222,5353
0.0108,4604
-0.0545,7727
0.0347,4489
0.0442,3280
0.0892,2931
0.168,2652
0.236,302
-0.0952,7623
0.27,602
-0.0174,5774
0.148,2321
0.194,2304
0.0174,4324
-0.0691,8198
0.153,683
0.142,2479
0.371,1054
0.394,39
0.143,1243
0.0475,3053
0.922,545
-0.184,7501
-0.0974,9600
-0.123,9986
-0.0447,6126
-0.0532,7432
0.022,4355
-0.286,10066
0.227,1165
0.124,874
-0.152,8846
0.275,1671
-0.0678,7430
-0.0514,5969
-0.149,8800
-0.0977,7656
0.115,1370
-0.171,10028
0.437,101
-0.122,9149
-0.18,8657
-0.0464,6201
-0.0642,7674
-0.219,9490
-0.265,10441
0.0562,3667
0.158,1068
-0.00229,5237
-0.197,9896
0.29,314
-0.0491,6150
-0.0709,6703
-0.0635,7341
-0.116,9195
0.0326,3519
0.459,15
-0.0662,7082
-0.109,7646
-0.347,9104
-0.0781,7181
0.0391,2988
0.536,435
-0.0341,5949
-0.052,6170
0.285,1221
-0.0173,5817
0.496,20
-0.386,10374
0.147,2418
-0.155,8718
-0.0232,6135
-0.0989,8276
-0.0858,6708
-0.45,8544
0.172,995
0.281,1655
-0.0761,5882
-0.0676,7133
0.152,191
-0.0119,5496
-0.0292,5589
0.0967,2243
0.111,1656
-0.165,9868
0.048,2219
-0.135,8202
0.00653,4932
0.14,614
0.069,3178
-0.0597,8159
-0.138,8417
0.0778,3129
-0.0766,6843
0.189,672
0.0219,3758
0.312,58
-0.183,10121
-0.0638,7373
-0.0889,7792
-0.0417,6041
-0.123,8563
-0.0668,8374
-0.0297,5577
-0.678,9972
-0.227,10005
0.767,302
-0.0431,6275
-0.192,10455
-0.203,9507
-0.448,7769
-0.319,9717
0.0306,3884
0.169,1577
-0.0449,6763
-0.00877,5291
-0.0762,6921
-0.00042,5285
0.0436,3996
-0.159,7237
0.0526,2797
0.204,816
-0.204,8526
-0.138,8873
0.161,1445
-0.408,10405
-0.0456,6646
0.0759,3014
0.0767,1927
0.0446,4141
-0.0861,7897
-0.0257,5688
0.127,690
-0.171,10082
0.106,2183
-0.115,9413
-0.205,9297
-0.146,9152
0.169,1482
-0.127,9629
0.256,403
-0.0363,6401
0.0415,3694
-0.038,6229
-0.11,8291
0.526,5
0.015,4607
-0.197,10075
0.125,2307
0.0112,4546
0.0233,4111
-0.0555,6763
0.128,1635
-0.0629,7472
0.213,2732
0.25,1380
-0.0927,7691
0.16,1871
-0.0341,6331
0.0764,2527
-0.159,8728
0.165,1493
0.0749,1894
-0.21,9971
-0.0828,7242
0.0194,4555
0.0506,3939
0.014,4638
-0.0526,7428
-0.246,9731
-0.188,8985
0.316,1995
-0.0519,6383
-0.00512,4950
-0.0835,7486
1.35,1156
-0.588,10326
-0.266,5733
0.162,1777
-0.582,9179
0.0376,4408
-0.0304,5843
0.216,1862
0.094,2478
0.0907,1582
0.315,38
-0.0975,7045
-0.0461,6665
0.0356,3730
-0.153,7815
0.149,1232
-0.0387,7474
-0.273,10104
-0.0997,7657
-0.232,8504
-0.192,8320
-0.263,10367
-0.213,10201
0.0698,3112
-0.0473,6589
-0.215,9506
0.286,723
0.0531,3098
0.0133,4698
0.0577,3132
0.0714,2794
-0.185,9734
-0.346,10230
0.0755,2860
-0.0803,7841
-0.138,8400
0.0305,4257
-0.0548,6879
-0.0721,6862
0.0666,3220
0.0439,3015
0.0728,3109
-0.065,6220
-0.0384,5797
-0.229,9659
0.0223,4240
-0.22,9912
0.0236,4005
-0.0433,6436
0.342,435
-0.0791,6674
-0.0411,6475
-0.0457,9173
-0.0971,7857
-0.0804,4626
0.0659,2868
-0.197,9905
0.0608,2779
-0.0413,6990
0.00467,5047
0.0284,3477
0.00505,4686
-0.356,10160
-0.0509,6524
0.0342,2986
0.0915,1947
0.0735,3981
0.13,2409
-0.276,8533
0.0243,4656
-0.041,6278
0.0402,3866
-0.209,8442
-0.379,10280
0.0677,3095
-0.15,7709
-0.00156,5284
-0.628,9590
0.828,1239
0.0137,4672
0.194,1091
-0.284,9805
0.0247,3302
-0.154,9858
0.0854,1029
0.111,2205
-0.051,6210
-0.295,9747
0.254,1009
0.246,1228
-0.109,8430
0.0652,3823
-0.114,6922
0.0373,4014
0.226,995
-0.17,9498
-0.0196,5678
0.192,631
-0.127,8591
-0.355,10156
0.127,2040
0.0197,3977
0.113,2324
0.0193,4395
-0.192,9883
0.717,154
-0.134,7137
-0.0972,9735
0.0221,4336
-0.0163,5376
-0.0421,6464
0.054,3851
-0.119,7952
-0.0317,6879
0.00911,4670
-0.0734,7045
-0.125,8587
-0.108,7308
-0.0308,5537
0.0995,1702
-0.159,9666
0.0422,3711
0.0933,2812
-0.394,9494
-0.0691,6631
-0.0995,8345
-0.234,10457
-0.166,9403
0.14,2043
0.764,13
0.127,2134
-0.127,9226
0.229,674
0.108,1988
0.214,1258
-0.0828,5863
-0.0117,5423
-0.0867,8231
-0.148,9206
0.222,988
-0.231,10097
-0.0544,7809
0.0109,4706
0.167,386
0.0328,2971
0.192,1214
-0.0354,6033
-0.131,8227
0.0223,4311
-0.187,9399
-0.00238,5263
-0.149,8745
0.0727,3342
0.295,770
-0.00104,4482
-0.171,7279
0.095,2860
0.0736,3740
1.17,297
0.353,597
-0.433,10425
0.0578,3541
-0.0519,6444
0.278,594
0.0458,4057
-0.0485,6598
0.0632,2717
0.121,1746
-0.127,7129
0.0793,2164
0.0935,2315
0.0765,3018
-0.0369,6393
0.0148,4177
0.367,100
-0.087,8150
0.192,3351
-0.0411,5612
0.037,3189
-0.0991,8259
0.235,1093
-0.43,10083
-0.115,9554
-0.175,9568
0.0363,3690
0.0173,4389
0.00631,4787
0.133,1785
0.147,3347
0.484,423
-0.103,7892
-0.0339,5988
-0.0363,5837
-0.122,8670
-0.0105,5481
0.113,1430
0.0526,3058
-0.0195,5986
-0.254,10449
-0.0484,6736
0.00957,4970
0.25,1495
-0.639,10098
-0.115,9270
0.268,624
-0.0265,6271
-0.218,9285
-0.215,9391
-0.13,8062
0.178,571
-0.16,7635
-0.0104,5669
0.307,326
0.605,47
-0.0153,5651
0.0386,3329
-0.0933,7922
-0.411,10388
-0.0488,5639
0.272,790
-0.0978,9534
0.0596,3263
0.482,2166
0.151,2855
-0.606,8638
0.0476,3986
0.0949,3636
0.158,2919
0.148,2087
-0.168,10053
-0.0985,7209
-0.029,5580
0.0145,4378
-0.0547,6560
-0.306,9845
0.754,709
0.117,3100
-0.954,9532
0.616,1804
-0.158,6929
-0.416,10260
0.145,1103
-0.324,9014
-0.303,10090
0.0718,1790
-0.176,10173
0.0712,3773
0.0311,4140
-0.0948,8227
-0.0793,5701
-0.0298,7198
0.0269,3977
0.109,2347
0.0858,3475
-0.0354,5603
0.224,1274
-0.0994,7872
0.00802,4833
0.376,1078
-0.353,9255
-0.409,9595
-0.0249,5785
0.171,1156
0.151,634
-0.226,9438
0.0855,2693
-0.0442,6372
0.182,1261
0.16,195
0.189,212
-0.931,9648
-0.0162,5767
0.00847,4891
0.146,1946
-0.0444,6827
-0.0784,8437
-0.0256,6528
0.0378,3679
-0.236,7715
-0.0199,6596
0.232,416
-0.0583,7810
-0.0342,6546
-0.104,6359
0.678,410
-0.0109,5382
-0.0171,5545
0.0838,2577
0.0979,1759
-0.1,7060
0.349,102
-0.114,8001
-0.0121,5830
0.14,614
-0.185,9709
-0.255,9475
0.134,1937
0.217,3078
-0.0239,5477
-0.145,9266
-0.0321,6333
-0.287,9496
-0.101,6960
0.177,2475
0.0463,3598
0.0397,3821
-0.102,8433
0.105,2950
-0.218,8818
-0.0342,5130
-0.0842,7927
-0.0621,8077
-0.0772,7024
-0.134,8156
-0.0775,9397
0.459,496
0.0408,2936
-0.24,10186
0.598,53
-0.13,8512
-0.0372,5710
0.561,19
-0.327,10236
0.207,224
-0.0303,5844
-0.186,10456
-0.155,6434
-0.237,10189
-0.104,9060
0.0526,2599
0.0871,2863
-0.0858,7490
0.406,1673
0.203,1482
-0.119,8613
0.0976,860
0.0952,1909
0.228,1607
-0.281,7081
0.116,1684
0.19,1938
-0.169,10409
-0.27,8948
-0.54,8541
0.0595,4342
-0.0516,6925
-0.64,10166
0.0659,3350
0.112,2375
0.14,2843
-0.0899,7867
0.204,184
-0.324,10467
0.253,1552
-0.169,8582
0.00662,4992
0.00356,4998
-0.164,9764
-0.0097,5671
0.171,741
-0.171,9246
-0.103,9040
-0.189,9785
-0.00575,5177
0.0669,3094
0.213,2000
-0.0712,7496
-0.477,9153
0.311,1994
-0.0631,6680
0.109,2298
-0.02,5686
-0.0853,7935
-0.137,8450
0.569,6
0.172,1146
0.26,1209
-0.0184,5394
-0.107,8679
0.6,124
-0.136,8174
0.396,922
0.0538,3603
0.42,1155
0.326,1405
0.305,2365
0.092,2361
0.0679,2930
0.199,499
0.117,1655
-0.0126,5192
-0.0739,6253
0.0511,3975
0.238,922
0.0713,2952
-0.402,9914
-0.0708,7792
-0.149,8778
0.142,1431
-0.0661,7781
-0.246,10041
0.0266,4295
-0.0918,7839
-0.0846,6692
-0.139,8724
0.0121,4504
-0.0697,8253
-0.193,9624
0.0962,3211
0.323,217
-0.173,8656
-0.0173,6686
0.0468,3768
-0.264,10070
-0.179,8802
-0.149,8349
0.0712,3073
0.0113,4632
0.0706,2493
-0.271,8979
-0.134,7723
-0.0458,5803
0.355,305
0.126,960
0.088,1837
0.0831,3535
-0.0872,6981
-0.0221,5301
-0.571,10459
0.0687,4052
-0.0474,7162
0.112,2184
-0.0753,7673
-0.017,4684
0.249,2619
0.128,444
-0.0793,7974
0.109,2183
-0.156,9459
-0.0873,8128
-0.15,7905
-0.0822,8694
0.0996,1351
0.124,1265
0.086,2862
-0.75,9476
-0.116,7911
-0.122,7628
-0.0488,6970
-0.0883,7964
0.252,1012
0.041,4124
-0.0986,7810
-0.0437,7438
0.0921,1883
0.15,3319
-0.0313,5281
0.118,1659
0.00314,4743
0.0977,1932
-0.432,10256
-0.0573,6038
0.182,667
0.151,2255
0.368,285
0.187,1277
0.0834,1045
-0.341,9659
0.0828,2910
-0.195,9945
-0.146,7654
-0.0505,7641
0.199,1292
0.0133,4794
0.109,2307
-0.0377,6464
-0.069,7071
-0.0703,7183
0.0901,3071
-0.0399,5822
0.146,1708
0.117,2875
-0.00976,5883
-0.224,10119
0.127,872
0.0137,4632
0.0187,4611
0.187,2209
-0.256,10365
0.151,613
-0.0535,7312
-0.0539,6362
-0.275,9666
-0.254,9754
-0.344,10470
0.195,502
0.217,533
-0.121,7689
0.267,357
0.172,185
0.0146,4558
-0.00738,5400
0.0559,2908
-0.0257,5453
-0.0145,5009
0.411,547
-0.0919,7823
0.192,1014
-0.088,8778
-0.517,10442
0.282,1114
0.0994,2818
-0.0902,6452
-0.0526,7245
0.0843,1700
0.028,4315
-0.109,7298
-0.228,9199
-0.00802,4863
-0.0702,7387
0.092,2539
0.279,376
0.0655,3671
0.0965,2253
-0.0186,5575
-0.149,9943
-0.0651,7540
0.0558,3341
0.0305,4225
0.0523,4022
0.127,3169
0.0275,4532
0.117,1403
0.0444,4275
-0.153,8032
-0.0803,6825
-0.0021,5242
0.00867,4755
-0.0321,6698
0.0362,4099
-0.00973,5073
-0.21,10215
-0.0652,6072
0.115,1516
-0.0149,6085
0.00442,4951
0.0949,3243
-0.164,9423
0.216,731
-0.141,9238
0.0334,3194
0.0384,4034
0.0604,3009
-0.102,6776
-0.209,10212
-0.0938,8624
0.104,588
0.112,2363
0.12,1173
-0.0331,6048
-0.179,5354
0.0165,4571
0.236,265
0.0222,4034
-0.0625,6580
0.0906,3339
0.0942,2336
0.0879,2021
-0.144,8635
-0.197,9590
-0.37,8791
0.0638,3811
0.0156,4666
0.144,1102
-0.129,8273
0.268,1128
0.0811,3637
0.0222,4275
0.129,3581
0.0241,4481
0.189,301
-0.375,10326
0.0528,3639
-0.0571,7071
-0.00777,5215
0.000382,5024
-0.079,7417
-0.122,7994
0.0635,2841
-0.0163,5525
0.372,966
0.0958,1854
0.0769,2189
-0.142,7299
-0.167,9142
-0.0259,5376
-0.431,10177
-0.0458,7102
0.0223,3802
-0.0792,6824
0.0869,3470
0.0811,3188
0.182,785
0.114,1435
-0.00332,4920
0.0194,4347
0.377,530
0.136,2139
-0.07,7663
-0.114,9135
0.211,2012
0.0091,4754
0.0939,2953
-0.0393,4917
0.0458,2075
0.41,29
-0.063,7649
-0.0403,6163
-0.195,10201
-0.139,8077
0.119,1621
0.138,785
0.103,3109
-0.229,8903
0.0246,4644
-0.0847,7058
0.0132,4500
0.0505,3685
0.0884,3160
0.0331,4033
0.0764,3304
-0.047,6307
-0.162,10309
-0.0809,9088
-0.132,7621
-0.0319,5933
0.0757,3212
0.221,2440
0.127,779
-0.15,10262
0.0537,3922
-0.118,8992
-0.399,10357
0.255,1643
-0.000478,5188
0.0944,1988
0.0563,2458
0.102,2809
0.269,645
0.0562,2842
0.215,558
-0.129,8996
-0.0137,5606
0.229,86
-0.114,5837
-0.139,8412
-0.13,8987
0.139,727
-0.0195,5392
-0.133,9241
0.0817,2623
-0.155,8092
-0.00827,5407
-0.177,9099
0.0233,4200
0.0905,3048
0.469,627
-0.369,8822
0.0312,3874
0.118,1673
-0.0337,5023
-0.0979,6688
-0.151,8191
-0.275,10033
-0.237,10372
-0.0531,7070
-0.158,9228
0.0687,2107
0.12,202
-0.0714,7332
-0.133,9973
0.12,1161
-0.619,8149
3.64,124
-0.397,8748
-0.575,9364
0.479,2020
0.0595,2614
-0.624,10378
-0.0926,7332
0.0223,4303
-0.0604,7217
0.00226,5045
0.0307,4029
0.0951,2341
-0.0248,5650
-0.144,8304
-0.0965,4026
-0.0685,7577
0.0297,3500
-0.174,9700
-0.0964,7761
-0.0904,7262
-0.279,9897
0.0864,2339
-0.00515,5520
-0.245,7056
0.195,1170
-0.415,9406
-0.0331,5991
-0.0986,8252
0.138,158
0.554,226
0.00794,4393
0.151,935
0.406,21
-0.0395,7353
-0.033,9759
0.0385,3682
-0.0142,5711
-0.00254,4776
0.113,1226
-0.0841,8797
0.525,209
-0.228,9186
-0.11,7329
-0.162,10011
0.0779,3107
0.115,1726
-0.232,9144
-0.217,7175
-0.186,8334
-0.0215,5291
0.0456,3492
0.0327,3821
-0.0398,7239
-0.327,10159
-0.234,9582
0.162,2697
0.238,2903
0.0679,2450
0.0555,2084
0.358,258
0.096,3590
0.0679,3237
0.268,2328
0.118,2168
-0.0184,6127
0.18,1273
0.223,1449
-0.0666,7327
0.277,1270
-0.104,8295
-0.168,9307
-0.019,5999
0.128,2559
0.119,1920
-0.135,8230
-0.0315,6405
0.264,77
-0.141,8739
0.302,477
0.498,280
-0.288,8721
-0.041,7758
-0.197,9560
0.129,1183
-0.111,8483
0.174,1610
-0.136,7658
-0.187,9710
-0.259,9048
0.0968,2712
-0.0595,6147
-0.428,10319
-0.0996,6759
0.157,528
-0.0426,7876
-0.489,10156
0.243,7
-0.376,9868
-0.0494,6071
-0.233,9791
-0.0299,5496
-0.044,6969
-0.181,8943
0.325,1189
-0.0999,8851
-0.00252,5273
-0.00799,5824
0.0908,2611
0.0708,3549
-0.269,9960
0.0182,4631
-0.0403,6920
0.0724,3291
-0.371,9964
-0.108,7205
-0.0448,7474
0.0908,2891
0.0226,4451
-0.00246,5072
-0.0325,6207
-0.144,8683
-0.166,9211
0.145,2439
0.064,3361
0.0294,3557
-0.709,8453
-0.275,8928
0.0521,3252
-0.282,8483
0.0597,3131
0.18,1006
0.0951,3293
-0.0229,6084
-0.109,7162
-0.163,9761
-0.048,6375
-0.0565,6968
-0.289,10235
0.0511,2607
-0.0912,6740
0.0413,4103
0.0111,4552
-0.117,8789
-0.245,9858
0.0606,2945
-0.0343,5873
0.00749,4544
-0.13,7707
-0.0216,5794
0.0608,2823
-0.156,9306
0.0425,4056
-0.0471,5999
0.204,1619
-0.00191,5117
0.128,1855
0.0129,4800
0.00988,4688
-0.0552,6012
0.0223,4441
-0.0622,6899
-0.0179,5669
-0.248,9148
-0.374,5552
0.00268,5080
-0.00471,5364
0.301,141
0.163,3143
-0.228,7455
0.164,2000
1.4,896
-0.219,8538
-0.0935,8016
0.385,648
0.157,1962
0.194,159
0.12,602
0.0261,4342
-0.0923,6390
0.0629,3835
-0.171,9661
-0.0402,7734
-0.0925,9380
-0.131,8339
0.0839,1712
0.103,1616
-0.182,9197
0.117,2272
-0.0608,8022
-0.479,9938
0.0681,2724
-0.0496,7478
-0.178,7838
-0.14,8751
0.0657,2126
0.0998,3510
-0.133,8454
-0.19,9348
0.307,141
-0.0243,5730
-0.16,8808
-0.0715,6386
0.0352,3557
-0.0358,6419
0.0649,3897
-0.0772,8077
0.0854,2312
0.38,418
0.0243,4385
0.589,174
-0.0396,5940
0.0272,3875
-0.0871,7829
0.171,2101
-0.0622,6590
-0.00232,5163
0.26,485
0.0891,2090
-0.212,10438
0.0761,1811
0.315,614
-0.0231,5233
0.491,65
0.0359,4051
-0.0234,6472
0.152,1184
-0.247,9237
0.15,2182
-0.138,8850
-0.0374,6728
-0.00574,5157
0.0205,4419
-0.113,8106
-0.179,8668
0.227,496
0.0703,2370
-0.132,9247
0.0291,4481
-0.0991,8663
-0.295,9701
-0.152,8732
-0.199,9760
0.115,1862
0.0246,4106
0.0824,1676
0.0876,2586
-0.0605,8343
0.152,1683
-0.16,9833
0.174,1601
0.0285,3743
0.0439,3480
0.0425,3841
0.00811,4732
-0.174,9421
-0.0949,8677
0.0263,3843
0.118,2037
-0.0213,5452
0.0184,4473
0.271,279
-0.00693,5203
0.0596,3455
-0.00612,5250
0.0266,4432
-0.166,8578
-0.123,8416
0.18,1658
-0.151,8233
-0.053,5638
-0.0917,6034
-0.141,9950
0.035,3725
0.119,1376
0.0907,3205
-0.0929,8120
0.414,483
-0.00927,5534
0.0983,1369
-0.175,9863
-0.121,8190
-0.17,6777
-0.437,10378
-0.073,8414
0.128,1135
0.122,2130
-0.141,9413
-0.139,7756
0.249,882
0.154,1634
-0.0775,8733
0.3,90
-0.117,8368
0.0739,3009
0.0473,3280
0.448,245
0.0592,3662
0.091,3019
0.0744,3519
-0.0365,4851
0.0409,4211
0.0392,3615
-0.0159,6293
-0.168,8709
-0.305,8933
0.00856,4708
-0.0759,6096
0.0973,2540
0.0247,3885
0.165,1816
0.0455,3481
0.09,2612
-0.37,9541
-0.371,9963
-0.0389,5929
0.0172,4539
-0.343,9929
-0.251,10405
-0.0432,6462
-0.00581,5563
-0.0497,7275
0.169,1632
0.097,2189
-0.109,7697
-0.0647,7132
0.025,3478
-0.102,9820
-0.0166,5807
0.000718,5184
-0.00165,4902
-0.0394,6685
-0.0176,5714
0.0297,3639
0.0686,2458
-0.0526,6744
0.163,106
-0.256,7723
0.14,1165
0.405,10
-0.297,9465
0.427,882
-0.221,10214
-0.216,9479
0.19,355
-0.0485,7811
-0.256,9780
0.201,410
0.179,1027
-0.0507,6886
0.155,1176
0.104,2394
-0.173,10216
0.243,654
-0.0124,5919
-0.0222,6196
-0.0607,7001
-0.109,8880
-0.0273,6206
-0.00302,5301
0.106,3075
-0.655,9086
-0.0937,8968
-0.104,9020
-0.0851,7818
0.156,1104
-0.272,9779
0.0118,4712
0.275,240
-0.156,10103
-0.175,9490
-0.181,9517
-0.207,8070
0.0833,2900
0.0241,3789
-0.156,9739
0.0562,3268
-0.0903,8269
-0.108,7101
0.118,1182
0.0819,2007
0.201,1042
0.0573,2998
0.0253,4546
0.148,1123
-0.478,10469
0.0603,3528
0.0359,3754
-0.0262,5483
-0.269,9784
-0.00576,5117
-0.38,8356
-0.104,9250
-0.0258,6369
0.0544,3957
-0.581,9315
0.0621,3019
0.369,1849
-0.0125,5072
0.14,922
-0.0592,5610
-0.0343,6028
-0.203,8055
-0.302,9992
0.163,532
0.13,1795
0.0147,4721
0.0439,4079
-0.0254,5666
-0.0346,6373
0.0426,2820
-0.0715,9085
-0.126,7624
0.0786,3712
0.105,2455
-0.14,8727
1.08,45
0.0444,2588
-0.157,8705
0.0519,3493
0.0261,4391
0.162,1047
-0.259,8517
-0.0918,8904
0.273,85
0.24,1470
0.189,3351
0.111,2120
0.151,1149
0.0272,4340
0.355,459
-0.0623,6585
0.161,2302
0.0272,4521
0.0745,2092
-0.108,8746
0.00332,4866
-0.0756,7218
-0.0976,7486
-0.0645,7531
0.073,2709
0.07,2476
0.0893,2570
0.158,1369
-0.193,6775
-0.162,8756
-0.151,9999
-0.124,9344
-0.147,7827
0.0514,3533
0.0125,4632
0.0758,2505
-0.0188,5976
-0.122,6259
0.0946,2280
-0.247,9004
-0.115,7881
0.161,1557
0.0855,2731
0.0387,3783
-0.203,8775
-0.0073,5705
-0.0215,5556
0.0234,3949
0.0228,4198
-0.0693,8425
-0.11,7806
0.0574,2628
0.191,1482
-0.0738,7345
0.007,4878
0.026,3816
0.118,2240
0.186,1310
-0.0752,6959
0.0265,4228
-0.0111,5138
-0.078,8011
-0.272,9059
-0.102,6779
-0.0514,6788
-0.0578,6428
-0.014,5483
0.111,955
0.0784,3315
0.318,1033
-0.191,10129
0.232,1986
0.483,12
0.0553,2766
-0.0998,8175
0.103,3814
0.113,2773
0.151,2506
0.0303,2821
-0.027,6098
-0.0467,6238
0.00203,4914
-0.256,9868
-0.0699,6914
-0.00797,5352
-0.0683,7016
-0.211,9912
-0.279,10265
-0.103,7752
-0.0931,7528
0.0326,3999
0.154,2051
-0.203,8321
-0.419,8507
0.0441,4488
-0.88,9501
0.0163,4443
0.0675,2148
0.145,1386
0.176,1863
0.248,331
0.0279,4124
0.00812,4694
-0.323,8892
0.0955,1305
-0.139,8549
-0.0225,6298
-0.116,8592
0.351,220
0.159,348
-0.132,7962
0.261,460
0.0958,2046
0.134,3282
-0.0205,5776
0.138,2289
-0.656,9028
-0.202,8864
-0.0331,6187
-0.334,10117
-0.0929,7927
-0.124,7078
0.75,220
0.0283,4234
-0.0128,5084
-0.0244,6124
-0.251,10475
-0.156,10142
0.103,2300
-0.069,6717
-0.308,7959
0.0365,3265
0.155,945
0.0549,2021
0.182,1874
-0.153,7661
-0.0906,4439
0.0938,3705
0.0359,3659
-0.167,9017
-0.173,8248
0.0645,2569
0.107,3070
-0.00134,5135
0.17,1373
0.26,588
-0.207,9767
-0.199,9298
0.0419,3980
0.286,685
-0.0109,5732
0.0858,1724
-0.11,8653
-0.0673,7904
-0.059,6712
0.318,183
-0.114,8887
0.131,2687
0.0725,2885
-0.175,9528
0.367,246
-0.0892,7453
-0.0722,8110
-0.229,9853
-0.185,7950
0.132,1984
0.106,2944
-0.243,7973
-0.0842,7585
0.0812,1127
-0.103,8878
0.11,972
0.0811,3117
0.0654,2687
0.107,1584
-0.115,8586
0.0499,4196
0.00532,4833
0.0758,2869
-0.5,8242
0.228,656
-0.0218,7106
0.199,454
0.0737,2599
0.0448,3978
0.167,474
0.127,1585
-0.21,9673
0.11,2721
0.055,3349
-0.139,8558
0.246,44
0.196,595
-0.0244,6518
-0.0332,5783
0.011,4310
-0.171,9394
0.251,379
-0.102,6953
0.0888,2771
-0.293,10261
-0.114,6441
0.035,4301
0.109,2932
0.0986,1413
-0.0129,5468
0.117,1576
0.191,2626
0.0676,3474
-0.115,6734
-0.202,10412
-0.0643,6977
-0.206,8957
0.153,1399
0.0917,1558
-0.48,9968
-0.0908,8619
-0.0168,6498
0.0239,4517
0.109,3155
-0.0479,5785
-0.0755,5924
-0.0301,6188
0.0692,3595
-0.349,10012
-0.185,9190
0.215,2997
0.221,1895
-0.0812,7448
-0.129,9404
0.0297,4163
-0.193,9659
0.179,1023
0.198,2049
0.159,593
0.103,627
-0.149,8103
0.0656,2852
-0.184,9839
-0.0567,6084
0.183,605
-0.18,9950
-0.0913,8057
-0.0019,5025
0.0713,2209
0.0608,2751
0.119,2027
0.0224,4092
-0.255,9784
0.275,898
-0.00371,5212
0.213,1864
-0.0653,8015
0.163,1170
-0.102,7305
-0.081,8684
-0.403,9542
0.0216,4346
-0.0789,8151
-0.0961,8853
-0.143,5429
0.651,70
-0.101,6193
-0.12,9926
-0.029,6552
-0.00221,5187
0.0622,3012
0.00595,4849
-0.0715,6713
0.399,35
0.0501,3866
0.0473,3231
0.00553,4610
-0.294,9168
-0.115,7875
-0.0139,5073
-0.0773,7248
0.0668,4001
0.0628,3878
0.122,2741
0.394,363
0.277,1494
-0.239,7899
0.0246,4321
0.00639,4861
0.545,733
0.0311,4245
-0.0416,7585
0.0231,4119
-0.0529,6718
-0.096,8181
0.407,199
-0.0838,7369
-0.112,8826
-0.12,8204
0.251,1995
-0.064,6504
-0.041,6544
0.0246,4366
-0.149,8123
0.306,1180
-0.229,9906
0.137,833
-0.0238,5538
-0.0766,8023
-0.059,7177
0.0677,453
0.0405,3799
-0.367,10375
0.00049,5110
-0.241,9872
-0.0377,6818
0.0102,4921
0.143,1679
0.132,893
0.0264,4222
0.516,76
0.0378,3588
0.00129,4928
-1.12,10083
-0.197,9721
-0.00238,5136
0.162,709
0.0603,3542
-0.0265,6009
0.0582,3386
0.184,1319
-0.0795,6276
-0.212,7672
0.126,575
-0.185,9462
0.0584,2916
-0.247,9156
-0.0247,5640
-0.146,7880
-0.0523,6189
0.0824,2636
-0.0589,6943
-0.545,10471
-0.0629,7669
0.379,163
-0.2,10149
-0.254,9388
-0.0803,7262
-0.182,8885
0.0731,3350
-0.152,8855
-0.102,7952
-0.0849,8481
0.0399,3922
0.0893,3258
-0.188,9702
-0.0691,7024
-0.0906,9129
-0.0779,7864
-0.14,9709
0.0737,3363
-0.183,7892
0.376,590
0.0837,2138
-0.0589,7857
0.211,1049
-0.121,7629
0.17,1404
-0.258,8777
0.334,104
0.0393,3766
-0.155,9733
-0.137,8750
0.0736,2394
0.114,1899
0.0563,3390
0.0458,3917
0.41,509
-0.347,10374
-0.0232,5928
0.198,2053
0.029,4272
-0.157,8883
0.0748,3663
0.155,853
0.332,798
0.0285,4428
0.129,1330
0.153,1319
0.0268,4623
-0.116,8663
-0.0372,6457
-0.0973,6488
0.0716,2782
0.057,2700
1.37,1255
0.125,2138
-0.106,7522
0.19,1328
0.0758,2517
-0.0409,5771
-0.187,9464
0.314,1056
-0.147,9746
-0.0377,7399
0.0701,2003
0.0332,3461
0.136,1020
-0.0325,6341
-0.231,9290
-0.217,8420
-0.11,9087
0.121,1430
0.126,1842
-0.0592,6496
-0.512,10423
0.00834,4675
0.0596,2785
-0.114,8930
-0.682,10373
-0.0522,8888
0.0432,2517
-0.0638,8210
-0.00671,5228
0.371,1571
0.165,1417
-0.015,6418
0.013,4174
-0.464,7888
-1.59,10331
-0.0756,8754
-0.133,9424
0.0326,4135
-0.108,8090
-0.0841,6788
0.135,2419
-0.017,5637
-0.253,10285
0.056,3391
-0.225,8919
-0.0125,5298
-0.0433,6454
-0.00889,5320
0.0878,1319
0.0337,3770
-0.0328,5577
-0.0376,5675
-0.111,7555
-0.115,7725
0.0758,3421
-0.137,10103
-0.193,10061
-0.056,6483
0.495,1011
0.184,1958
0.0748,2769
-0.0463,6228
0.0784,2041
-0.0605,7683
0.161,1545
-0.0183,5136
-0.0247,6157
0.0523,3048
0.0187,4496
0.0811,3034
0.0769,2330
-0.0695,5696
-0.0654,8373
0.0411,3816
0.167,1366
-0.0401,6288
0.0188,4415
-0.189,9732
-0.0241,6451
-0.317,10462
0.17,1107
-0.115,7951
-0.0318,6296
0.0728,3026
0.0397,3682
0.0456,2510
-0.094,8108
-0.207,10181
-0.312,9955
-0.0695,8144
0.121,403
0.00262,5319
-0.144,9358
0.22,2796
-0.0359,6586
-0.0835,6874
-0.0136,6041
0.0548,2807
-0.118,8469
0.419,139
0.217,617
-0.191,9260
-0.0842,6631
0.262,158
-0.286,9634
-0.0148,5996
0.465,315
0.065,4073
-0.0136,5775
0.0416,3988
0.0953,2007
0.0459,3725
0.133,1608
-0.125,8387
-0.00396,5234
-0.174,10420
-0.0469,6772
-0.0741,7110
0.0151,4506
0.0347,4001
0.0295,3353
-0.0538,7665
0.155,1324
0.232,1702
0.0541,3647
0.0889,1816
-0.051,6657
0.349,84
0.502,9
-0.12,7013
-0.41,10356
0.0522,3668
-0.000961,4991
-0.533,8403
-0.446,8215
-0.0453,5972
-0.433,9076
-0.0483,7215
0.0802,3304
0.361,663
-0.113,8349
-0.0116,5568
-0.0891,7949
0.0979,2027
0.143,3078
-0.11,8408
-0.228,9368
0.00837,4862
-0.0486,7588
0.07,2570
-0.428,10080
-0.117,7391
0.0978,1276
0.116,1584
0.0879,2226
-0.104,8129
0.223,1847
0.0541,3761
0.00965,4650
-0.278,10334
-0.0403,6376
0.142,1160
0.0378,3899
-0.0103,5215
-0.0173,5187
-0.0938,7284
0.13,1701
-0.896,9373
-0.0302,6092
-0.0835,6912
0.742,74
0.115,1003
0.0286,3942
-0.0989,9511
-0.125,7546
0.064,3186
-0.00492,5169
0.0692,3700
-0.244,9438
-0.067,8148
-0.121,8194
1.06,19
-0.0671,6958
-0.143,9964
0.0434,3804
0.0413,3528
-0.264,10009
-0.543,10203
0.869,469
-0.127,7865
0.164,103
-0.124,8641
-0.395,8240
0.0911,2681
-0.0749,8168
-0.0177,5751
0.148,2071
0.0137,4680
0.423,1041
0.619,1188
-0.0788,7674
-0.0127,5810
0.175,960
0.0114,4749
-0.235,9629
-0.00346,5036
0.0154,4002
0.221,1068
0.00151,5054
-0.0732,7632
0.028,4532
-0.0665,7147
0.114,918
-0.102,8836
0.0984,1607
0.0795,3073
-0.00301,5061
0.278,1323
0.048,3774
-0.151,9375
0.107,2421
0.152,829
-0.124,7326
-0.136,8352
-0.0153,5635
0.204,511
0.408,364
0.117,1776
0.079,2897
-0.143,8872
0.0352,3878
-0.0991,9196
-0.131,7317
-0.323,7061
0.0999,3725
0.475,927
0.0852,1937
0.149,820
0.0987,2744
0.0608,3400
0.0549,3446
-0.367,10017
-0.16,10156
-0.0959,7869
0.319,342
-0.194,10022
0.0439,3769
-0.00749,5085
-0.0346,6311
0.194,1153
0.0171,4666
0.312,1019
-0.0655,6669
0.0203,4472
0.087,1582
0.0126,4280
-0.254,9180
0.0905,2661
-0.113,7772
0.33,882
0.165,1162
-0.153,8012
-0.105,8217
0.0885,2003
-0.14,7694
-0.238,10456
-0.112,10153
0.306,1978
0.29,66
-0.155,7644
0.228,575
0.138,357
0.168,182
0.185,736
0.225,540
-0.0575,7020
-0.0238,5109
-0.0862,8537
-0.127,9591
0.15,662
-0.183,8869
-0.134,6042
-0.124,7134
-0.26,9280
0.193,354
0.311,438
-0.0888,8886
-0.25,9295
0.268,842
-0.0817,7521
-0.0324,6971
0.101,2514
0.103,2648
0.147,926
0.0844,2518
-0.0585,7893
-0.00159,5233
-0.281,9103
0.258,602
-0.185,8803
-0.0375,5644
-0.0449,6264
0.366,230
-0.468,8812
0.0517,4260
0.166,3524
-0.259,7907
-0.0379,6021
0.133,929
0.025,4008
-0.0961,8046
0.674,120
-0.414,9469
-0.0106,5496
-0.174,7150
-0.131,7399
-0.0351,5649
-0.0353,5839
-0.0335,5431
0.108,1207
-0.142,9592
0.305,214
0.0896,2919
0.326,207
-0.0188,5552
0.107,2473
0.0299,4183
-0.407,10163
-0.375,10434
-0.0712,5323
0.0545,4061
0.103,1665
-0.0886,9145
-0.0439,6438
-0.149,8867
-0.118,6238
-0.0886,7758
-0.0721,7792
-0.17,9137
-0.108,8120
0.0198,4586
-0.0904,7645
-0.0553,7013
-0.0299,6393
-0.0449,7020
0.302,245
-0.0223,5689
0.0799,1271
-0.0919,7814
-0.0628,8428
-0.0937,7969
0.3,380
0.0299,4384
0.128,2078
-0.234,9897
0.0557,2134
-0.0584,7554
-0.011,5500
0.139,1256
0.663,597
-0.189,8373
0.027,4049
0.0352,3686
0.0683,2913
0.28,1128
-0.0209,6220
0.0472,4210
0.0198,3740
0.00153,4948
-0.213,8123
-0.0945,6934
-0.296,10150
-0.15,8504
0.237,715
-0.0485,7360
0.187,865
0.111,2314
0.168,2267
-0.0507,7028
-0.00706,5654
0.0855,3540
-0.208,7723
-0.0845,7806
-0.00534,5090
-0.16,6469
-0.0893,8295
0.149,841
-0.135,7933
-0.0693,5704
0.335,601
0.0268,4175
0.0257,3638
0.249,436
-0.196,9867
0.293,1904
0.0113,4539
0.0619,3487
-0.053,7504
-0.224,8095
-0.0745,6722
0.0564,2984
-0.00652,5157
-0.0467,8182
-0.0176,5794
0.222,1023
0.0367,3967
-0.144,8029
0.0268,4357
-0.0756,8879
-0.0675,6801
-0.227,7913
-0.703,9710
-0.143,8017
0.00644,4123
0.284,1301
-0.168,9095
-0.0718,7727
-0.166,9290
-0.0158,5797
0.101,1539
-0.00195,5110
0.0109,4470
0.3,614
0.12,1735
-0.0212,5884
0.0458,3669
0.217,1256
-0.147,8776
-0.307,10339
0.0702,1437
0.00477,4896
-0.0252,6155
0.236,659
0.0378,3704
0.035,3917
-0.0628,7152
-0.218,9697
-0.321,10423
0.5,209
-0.0951,7799
-0.385,10341
0.315,34
-0.0607,7191
0.253,542
0.176,1003
-0.151,8118
-0.0929,8797
0.026,4174
-0.195,8824
0.127,1897
0.266,476
0.0533,3972
-0.364,10205
-0.0908,7393
-0.0121,5837
0.0241,4512
0.00731,4517
-0.13,8482
-0.19,8097
0.107,1461
-0.0399,7123
-0.0105,5320
0.0669,3623
-0.0527,5335
0.237,2360
-0.00167,4832
-0.102,8664
-0.07,9066
0.0435,4058
-0.216,8233
-0.162,8196
0.0383,4193
0.0362,3353
-0.103,8740
-0.0858,8288
0.0538,3469
-0.0591,7730
0.102,2087
-0.182,9867
-0.0717,7436
-0.0633,7227
0.0876,2524
0.0849,2263
-0.0725,8906
0.121,1478
0.251,450
-0.0991,7822
0.115,2158
0.144,1027
-0.166,8587
0.0372,3941
0.257,381
-0.0372,6494
0.373,786
-0.136,8422
-0.307,9986
-0.0504,6903
-0.271,10426
0.0823,3495
0.213,1792
-0.00672,5776
-0.0749,6949
-0.178,9346
0.114,1704
-0.127,7598
0.0614,2677
-0.0436,5393
-0.105,5738
-0.0159,5398
0.0165,4413
-0.352,10184
0.00208,4919
-0.00784,5376
-0.0544,7778
0.292,265
0.0625,3386
0.0933,3035
-0.169,8934
-0.182,9232
-0.000593,5240
-0.0686,7493
0.0354,3964
0.203,565
0.144,1307
-0.25,10420
-0.0768,8468
0.234,1968
-0.179,8504
0.111,1954
0.0216,4532
0.0301,3252
-0.0245,5683
0.136,1485
0.115,1852
-0.00561,5209
-0.13,8400
-0.33,10223
-0.147,9496
-0.0401,7085
-0.0335,6005
-0.244,10051
-0.00613,5431
0.148,1833
0.0218,4605
0.249,1015
0.0317,3888
0.305,996
0.303,2134
-0.0559,7558
-0.135,10304
0.292,186
-0.282,10341
-0.0881,8267
-0.181,6907
-0.0533,8176
-0.0823,8453
0.0059,5022
0.0531,4071
-0.000412,4819
0.0519,3635
-0.248,10238
0.0506,3493
0.109,2344
0.00432,4802
0.119,1793
-0.64,10242
0.0119,4585
0.0203,4262
-0.174,8762
-0.173,8253
-0.0439,6231
0.27,1711
-0.0673,8683
-0.0832,8491
0.116,1647
0.118,1700
0.0854,2458
-0.524,10297
0.296,222
-0.25,9734
-0.111,5508
0.073,2754
0.0494,3566
-0.0421,7001
0.0658,2334
0.00242,5027
0.117,2291
0.0252,4324
0.0152,4608
-0.251,10137
-0.0121,5441
0.0463,2395
0.0795,2334
0.0957,2474
-0.342,10349
-0.0296,5854
0.00174,5065
-0.149,10062
-0.0349,5757
-0.0701,6238
-0.136,8637
-0.104,7869
-0.0999,9350
0.0496,3313
-0.256,9716
0.168,1358
0.43,281
-0.106,7387
-0.0529,8975
-0.0713,7882
-0.0711,6631
0.0326,4240
0.495,974
-0.237,9579
0.11,1733
-0.032,7077
-0.0799,8277
0.182,1225
-0.462,9409
0.212,1170
0.0314,3499
-0.000505,5001
0.194,2473
0.242,187
-0.0602,6775
0.0886,3358
0.206,375
0.0168,4332
0.169,1875
0.701,43
-0.075,7208
-0.117,7216
-0.0462,6884
-0.116,8914
-0.016,5619
0.291,412
0.00323,5028
0.496,1120
0.00458,5061
-0.0847,10221
-0.134,7782
-0.148,9220
0.241,2528
-0.0746,7444
-0.0381,7233
-0.0338,6657
0.299,1164
-0.294,9642
-0.0937,6691
-0.135,6875
0.102,1920
-0.0882,6968
-0.218,10205
-0.0562,7280
0.0445,3397
0.197,1833
0.11,726
0.0866,2723
0.214,889
-0.04,6702
-0.526,8203
1.06,33
0.137,1687
-0.315,10453
0.0638,2670
0.154,2690
0.231,629
-0.248,8513
0.0279,4303
-0.138,9171
-0.138,8193
-0.341,7946
0.0352,4267
0.297,1672
0.0675,1556
-0.12,8331
0.355,149
-0.00399,4723
-0.0851,8229
-0.298,9384
-0.244,10419
0.493,183
-0.192,9191
0.00939,4701
0.0844,2878
0.346,569
0.0447,3167
0.186,1515
0.00155,5341
0.0732,3059
-0.0221,5133
-0.0304,5671
0.0239,4091
-0.0141,5487
0.0623,3513
-0.134,9178
-0.0618,5899
-0.0335,5839
0.0698,2278
-0.174,9399
-0.308,10118
-0.197,9279
0.0384,3108
0.153,2446
0.0927,1627
-0.0316,7409
-0.0314,6530
-0.0161,5897
-0.177,9590
0.00614,4802
-0.257,9732
-0.00998,5742
-0.0141,5816
-0.389,10250
-0.282,9945
0.466,622
0.442,1304
0.00237,4996
-0.047,7489
-0.158,8373
-0.0996,8866
0.105,2666
-0.0511,6399
-0.0768,8337
0.0759,988
-0.364,7389
0.63,1950
-0.839,9293
-0.455,10404
-0.0906,6081
-0.0885,9287
0.0138,4671
-0.291,10120
0.0507,3229
-0.0938,9838
-0.18,10225
0.0204,4304
-0.0234,5358
0.017,4491
-0.138,8982
-0.0458,6337
-0.113,9438
-0.0922,7817
0.361,394
-0.384,10238
0.221,1394
-0.142,9044
0.477,642
0.151,2364
-0.153,9206
0.0176,4661
0.841,354
0.00731,4789
-0.0383,6789
-0.0739,7862
0.128,3163
-0.151,6384
-0.125,6238
0.0674,3752
0.201,177
0.145,1612
1.12,878
-0.224,7277
0.822,1690
-0.0417,3346
-0.232,10262
-1.12,9804
-0.267,8182
-0.136,5535
0.119,1886
-1.44,10053
-0.0912,7667
0.0428,3516
0.121,2120
0.127,1980
-0.0567,7670
0.176,651
-0.309,10113
0.19,1307
0.0136,4310
-0.173,6052
-0.357,10429
-0.119,8319
0.174,188
0.0119,4796
-0.0227,6314
0.147,1068
0.0137,4635
-0.0596,6195
-0.0988,9285
0.12,1687
0.0878,2265
0.113,1925
0.00443,4742
-0.0397,6829
-0.0184,5033
0.508,252
-0.0839,5626
0.0659,2944
0.268,1356
0.0115,4377
1.01,279
-0.221,7081
-0.329,9682
-0.113,7829
0.189,764
0.192,1097
-0.041,6289
0.0572,3334
0.218,598
0.202,748
-0.0806,8843
0.0366,3822
0.0388,3999
0.324,391
0.128,1963
-0.0582,6092
0.0354,3209
-0.0464,7926
-0.135,6523
-0.309,7650
-0.157,5296
-0.21,9436
-0.513,10429
0.26,464
-0.0781,7015
-0.242,9950
-0.0286,6036
-0.0624,7879
0.112,1376
-0.0347,5214
0.0885,2353
-0.561,8093
0.141,2283
-0.183,10298
0.112,1687
0.192,1514
0.54,1
0.0403,4252
0.386,748
0.108,937
-0.212,9745
-0.101,7819
0.0878,2921
0.207,754
-0.0392,6530
0.093,1423
0.108,1677
-0.169,7486
0.281,960
-0.219,9514
-0.0932,6396
-0.0528,7672
0.0829,3174
0.201,2707
-0.0358,6156
-0.263,9008
-0.0234,6258
-0.139,7474
0.0945,2865
0.284,755
0.155,897
-0.153,8988
-0.0354,6786
-0.0208,6023
0.0378,2871
0.644,0
-0.0938,7537
-0.194,9305
0.23,2463
0.0923,2067
0.047,3136
0.0627,3627
-0.0138,5760
-0.000157,4255
-0.233,8878
-0.13,8862
0.0581,1357
-0.159,5311
-0.267,8719
-0.355,8562
-0.0905,5800
-0.139,7182
0.211,2829
-0.192,9245
-0.102,7707
0.0104,4616
-0.00418,4856
-0.0664,9309
-0.0682,8461
-0.0323,6175
-0.029,5887
-0.0766,6475
-0.107,8847
0.2,2237
0.148,1087
0.0181,4393
0.0427,3854
0.08,2622
-0.0629,6656
-0.025,6656
0.0509,3832
-0.0905,7757
-0.046,5943
-0.0498,6303
0.461,216
-0.13,9316
-0.0861,7493
0.0571,3619
0.103,1953
0.111,3134
0.00469,4776
0.108,2896
0.000753,5068
-0.0488,6836
0.0479,3801
-0.16,8051
0.248,2655
-0.14,9249
0.0155,4611
0.0616,2414
-0.141,8907
-0.271,9954
0.0709,2469
-0.0735,8145
-0.148,10142
-0.0189,5323
0.1,2778
-0.293,9785
0.171,1882
-0.0834,7967
-0.125,8281
0.168,2134
-0.14,8988
0.147,2231
-0.157,9097
-0.219,9824
-0.0131,5789
-0.0583,5786
0.252,693
0.241,1045
-0.194,9398
-0.112,8000
-0.0877,8973
-0.0777,7371
0.139,2756
0.357,1131
0.105,2223
0.256,1075
-0.0115,5342
-0.187,10412
0.207,1760
0.0314,3606
-0.00766,5541
-0.0105,5261
0.176,1109
0.205,1542
0.222,2614
-0.198,8869
0.0959,1244
-0.00976,5419
0.381,2249
-0.144,7777
0.00885,4931
-0.131,9479
0.163,1066
0.0524,2150
0.0714,1594
0.0693,2878
-0.186,8478
0.281,312
0.181,679
-0.132,8970
0.255,613
-0.0681,7723
0.124,2542
-0.0152,5860
-0.184,9950
-0.0964,9072
-0.16,8292
0.116,928
-0.029,5505
0.0213,4414
0.0904,3567
-0.115,8432
0.11,1342
0.255,429
-0.0643,7065
-0.183,8079
0.0711,2701
0.0226,3709
0.318,143
-0.178,8958
0.115,1057
-0.0685,7107
0.0815,2068
-0.093,9670
0.0375,3832
0.155,1573
-0.239,8385
-0.177,7149
-0.178,10014
-0.0238,6476
0.242,1114
-0.281,10384
0.0568,3679
0.709,677
-0.0292,5926
0.0194,4370
0.14,2670
-0.0984,7824
0.0113,4476
0.105,1837
-0.146,8822
0.0271,4158
0.00525,4661
-0.227,10031
0.285,1154
0.638,445
0.00242,4978
-0.046,8300
0.177,620
0.07,3773
-0.107,8685
-0.18,8970
0.0958,1429
-0.0865,8456
-0.0114,4856
0.0062,4714
0.0631,4156
0.183,1617
0.0689,3003
-0.0339,7114
0.0391,3671
0.0712,2398
0.0583,3613
-0.186,10346
-0.167,10270
-0.147,10175
-0.218,9101
0.224,815
-0.11,8428
-0.183,9642
1.16,569
-0.119,9739
-0.127,8465
-0.0562,6869
0.0965,2849
-0.0357,6417
0.0871,2288
-0.132,7683
-0.366,9801
0.466,34
-0.126,9003
0.269,976
0.094,1987
0.342,151
0.0231,4073
0.0688,2965
0.172,728
1.73,638
0.0669,597
0.117,869
-0.0687,7896
-0.209,10109
0.227,1468
-0.0857,7735
0.158,1324
0.0292,3685
0.173,689
0.247,688
-0.0172,5598
0.0603,3975
-0.229,9657
-0.0215,5785
0.183,2996
-0.0325,5895
0.347,830
0.141,1761
0.0207,4327
0.125,1457
-0.0441,6776
-0.0247,5710
-0.0403,6191
0.125,1301
0.322,701
0.167,1574
0.0263,4065
-0.00844,5190
-0.0195,5906
-0.153,10260
0.193,155
0.0718,3198
-0.163,8776
0.0332,4344
0.0026,4785
-0.0851,6240
-0.0436,7438
-0.0256,6308
-0.205,10056
0.277,427
-0.382,8887
0.229,1228
-0.0884,9392
0.0558,3598
-0.236,9511
-0.108,7469
1.18,175
-0.398,10468
-0.073,8092
0.0305,3526
-0.101,6497
0.13,2101
-0.355,8046
0.0665,3699
0.209,807
-0.516,10399
0.0338,3832
-0.02,5570
-0.0506,7160
0.0786,3748
0.0599,1826
-0.0441,7171
0.0966,2605
0.105,2380
-0.12,7766
0.777,64
-0.234,10302
0.102,1592
-0.0763,8448
-0.221,10431
-0.0369,6078
-0.182,9649
-0.107,10338
-0.0379,6000
-0.0533,6287
-0.122,8167
-0.234,9982
-0.239,9919
-0.145,8835
-0.033,8695
0.333,603
-0.54,10470
-0.273,9327
0.17,793
-0.0867,9287
-0.0213,5328
0.593,315
0.00554,4965
0.113,2978
0.0439,3416
0.0859,2255
0.055,3651
0.187,845
0.0535,3619
-0.259,10150
-0.0796,8053
-0.00376,5549
-0.0116,6110
-0.139,7425
0.062,2893
0.00949,4549
0.0584,3408
0.117,1254
0.184,531
0.0727,2404
0.121,2734
0.0634,2859
-0.0926,6543
0.0751,734
-0.0712,7624
0.228,913
-0.0629,6733
0.17,1478
-0.152,9189
0.127,733
0.016,4567
0.208,1110
0.218,1148
-0.0366,6554
0.156,911
-0.00592,5459
-0.0146,5676
-0.0512,5807
0.0622,2893
0.0893,3862
0.216,1064
-0.122,8692
-0.0515,8544
-0.348,10308
0.0206,4536
-0.0776,7350
0.0317,4148
0.186,1068
-0.141,9213
-0.0218,5458
0.584,455
-0.332,10239
-0.193,9155
0.0152,4509
0.048,3555
0.33,2247
0.188,1032
-0.236,10088
-0.191,8891
-0.0185,7022
0.0544,2910
0.213,1497
-0.185,9862
-0.045,6749
-0.148,8993
-0.0517,7989
0.212,445
0.572,49
0.108,2777
-0.39,10442
-0.0992,8081
-0.0716,8905
0.239,149
-0.152,8752
-0.15,7918
-0.0394,6614
0.243,1212
-0.103,8781
-0.109,8937
-0.274,9216
0.127,3158
-0.389,7342
-0.106,6899
-0.0876,8086
-0.0549,6816
0.0292,4366
0.298,698
-0.0177,5966
0.341,693
0.1,1601
0.253,115
-0.0741,6020
-0.336,9984
-0.0346,6990
-0.0705,6151
0.0688,3267
-0.203,10176
-0.374,9115
-0.025,5908
-0.63,8762
1.47,10
-0.112,9626
0.0143,3013
-0.0219,5568
-0.0901,5811
0.0732,2172
0.116,1877
0.163,795
0.502,1100
-0.0386,5840
-0.46,8290
-0.399,9980
-0.226,8820
0.135,2193
0.0238,4391
0.203,1607
0.548,723
-0.0647,6806
0.0489,2632
-0.0127,5269
-0.236,8547
-0.311,7193
0.459,997
-0.047,6817
-0.224,9850
-0.0798,8131
0.0223,4600
0.224,691
0.0526,4288
-0.623,10381
-0.072,8367
0.155,1093
-0.14,7969
0.174,216
-0.237,6945
0.0748,2968
-0.0814,8851
0.0554,3433
-0.763,10033
-0.0875,7155
0.381,1711
-0.449,10383
-0.0803,7565
-0.12,9980
-0.16,9136
-0.0848,8223
1.32,232
0.303,79
0.0797,2813
-0.00434,5104
0.261,1402
0.0165,4741
-0.408,10462
-0.0813,7687
-0.131,9272
0.214,159
0.606,30
0.274,799
0.609,189
0.143,2026
-0.0509,7589
0.194,108
0.151,1142
-0.675,10039
-0.368,10322
0.194,867
0.000816,4825
0.0611,1760
-0.115,7228
-0.268,9899
-0.0499,6827
0.119,2610
0.126,2685
-0.0673,7935
-0.123,7279
-0.178,9734
-0.0756,6773
0.159,1942
0.114,2061
0.0489,3603
0.203,814
-0.0868,9511
-0.126,7685
-0.173,8874
-0.149,10143
0.291,818
-0.19,9051
0.136,2771
0.576,619
-0.056,6542
0.0201,4457
0.0503,4032
-0.0986,7896
-0.0966,6948
-0.344,10405
-0.694,9818
0.0771,2634
0.286,991
-0.0465,5934
-0.388,9997
-0.014,5511
-0.0846,8261
0.0432,3715
-0.0633,7862
-0.071,8246
0.0942,2416
-0.0622,6434
-0.162,8657
-0.014,5557
0.24,175
0.122,2280
-0.0704,8141
0.113,3359
-0.0663,6824
-0.11,9500
-0.00258,5127
-0.138,9226
-0.00275,5095
0.00253,4719
-0.0139,5476
0.0772,2223
-0.303,10421
-0.00872,5518
-0.174,9453
0.22,1206
-0.267,8836
-0.234,10344
-0.00149,5026
1.34,26
0.821,113
-0.134,9418
-0.00806,5368
0.25,279
0.523,139
0.419,98
0.178,109
-0.265,10215
-0.0646,8203
0.232,85
0.0737,1127
-0.00155,5364
-0.0665,8046
-0.155,10182
0.0496,3076
0.0295,4271
-0.0286,5926
0.155,863
0.336,64
0.154,1305
0.204,934
-0.0972,7843
-0.0677,8770
0.0414,4171
0.13,1938
0.183,259
0.0606,3397
-0.452,9881
-0.00566,5056
0.229,584
-0.00428,5214
-0.0505,6788
0.318,2820
0.142,1002
-0.0562,6099
-0.0899,8644
-0.0148,5864
-0.288,8263
-0.00551,5098
0.0775,2820
-0.00926,5144
0.102,2613
-0.037,6108
0.0827,3041
-0.151,8703
0.0844,2730
-0.0405,7398
-0.103,7596
-0.205,7711
0.734,259
-0.167,6473
0.16,1039
0.0186,4232
-0.295,10350
0.103,1761
0.249,1794
-0.297,8336
-0.00941,5503
-0.0446,6429
-0.0145,6137
-0.298,9319
-0.198,10124
0.113,2687
-0.0348,6639
-0.0426,7452
0.195,2184
-0.0743,7676
-0.164,9114
-0.0654,7439
0.019,4114
-0.204,8730
0.128,3219
-0.0204,5965
0.0572,3739
-0.0338,6477
-0.0726,8457
-0.0508,6254
0.0788,3176
-0.0998,7307
0.129,2956
-0.182,6801
-0.1,9358
-0.0679,8304
-0.173,9580
0.264,879
-0.203,8748
-0.387,9790
0.235,147
0.0203,4558
0.0511,3533
0.172,2150
-0.0594,7775
-0.224,10197
0.0132,4910
-0.0429,6251
-0.136,8657
0.0578,3586
-0.0984,6773
-0.0759,6191
-0.0589,7408
-0.0426,7883
0.104,1887
-0.0949,6521
-0.0719,7052
0.0457,3960
0.153,926
-0.3,10432
-0.243,10055
0.0923,3466
0.134,2688
0.31,1221
-0.0314,7878
0.127,1653
-0.0889,7955
-0.137,8234
0.0673,2876
-0.00875,5539
-0.0552,7157
-0.153,9897
-0.00978,5138
0.0652,3606
-0.35,9796
-0.2,7637
-0.0866,8461
-0.0296,6330
-0.172,8221
0.057,3128
0.412,373
-0.114,7524
-0.0929,8141
0.0482,3476
-0.108,7741
0.168,1792
0.397,140
-0.0646,7653
0.119,2137
-0.117,8347
-0.244,8841
-0.451,8962
-0.175,7975
-0.0958,9666
0.0159,4211
-0.197,9693
-0.0465,6002
-0.364,10013
-0.16,9512
-0.00836,5631
-0.242,10041
-0.181,7879
-0.151,8242
-0.216,9275
0.149,975
-0.0145,5978
0.0415,3631
-0.157,8413
0.0433,3516
0.139,1118
-0.0588,5089
-0.111,9557
-0.0997,8430
0.0412,3893
-0.151,9551
-0.251,10205
0.23,2288
-0.28,9183
-0.0114,5483
-0.147,6583
0.104,1803
0.0753,3861
-0.0453,6102
-0.0741,8210
0.344,371
-0.165,9784
-0.0491,6065
0.69,123
-0.543,9296
-0.00463,5008
-0.0152,5821
-0.2,9299
-0.0767,6298
-0.416,9287
-0.114,8402
0.107,893
0.0583,2470
0.13,1504
-0.0047,4729
-1.08,9883
-0.0558,7190
0.00234,4973
-0.266,10131
-0.0343,6323
-0.0297,5594
-0.0176,5505
0.0941,2253
0.131,2369
0.166,1251
0.0494,3879
0.0248,3822
0.109,1583
0.0567,3386
-0.0054,5054
0.101,2464
-0.218,9642
0.0874,2884
-0.00284,5075
-0.543,10457
0.00381,4850
0.564,886
-0.179,9327
-0.0128,5681
-0.136,8104
0.241,357
-0.0352,7517
0.171,187
0.478,513
-0.00432,5082
0.0489,3916
0.202,125
-0.0868,7560
-0.0209,5595
0.183,1203
0.24,2775
-0.429,7957
0.14,2446
0.316,284
0.176,1928
0.486,1079
0.0734,3183
-0.131,7878
0.0488,3049
0.0388,2304
-0.102,6828
0.0676,3179
-0.286,7845
0.0465,3347
-0.0974,8208
-0.107,8824
0.135,2116
0.343,543
-0.0121,5417
0.0588,3251
0.075,1742
-0.12,9178
0.641,105
0.0726,3413
-0.243,10052
0.152,3210
-0.353,10089
0.0388,3271
0.0536,3761
0.117,2497
0.0689,4031
-0.24,9985
-0.0944,8840
-0.024,6525
0.0454,3108
-0.0796,7990
0.0571,3066
-0.206,9658
-0.0281,6327
-0.243,10210
0.154,1580
0.0109,4619
0.0781,3798
-0.114,8379
-0.0608,6948
0.0249,4251
0.127,2546
-0.0106,5181
0.061,2564
0.301,1252
-0.112,8990
-0.0959,8757
-0.14,7950
0.0304,3597
0.0635,4042
-0.0327,5445
-0.0198,6133
-0.00473,5400
-0.259,10324
0.155,1861
0.27,826
0.0791,3214
-0.105,10044
-0.134,9974
-0.0462,6502
-0.345,10235
-0.336,8183
-0.0734,6870
-0.0378,6690
-0.0301,6695
0.0305,3135
0.19,2851
-0.0895,7383
0.372,1818
0.306,250
0.00526,5030
-0.552,8830
-0.0854,8003
0.0324,4200
-0.169,9219
0.0861,1573
-0.116,8315
0.0736,3330
-0.0572,8424
-0.00516,4836
0.0983,2587
-0.305,10174
0.0522,2624
0.00571,4718
-0.254,9607
0.0663,3054
0.0634,4079
-0.0251,5904
0.0945,1703
-0.146,8671
-0.0503,6407
0.0695,3220
-0.159,6912
-0.0505,6922
0.0494,3274
-0.638,9528
-0.603,8409
-0.108,8587
-0.0558,6300
-0.0229,5402
-0.057,5994
-0.222,8284
0.106,1754
0.00601,4688
-0.0532,5758
0.312,862
-0.729,10368
0.076,3826
0.0647,2195
-0.101,9198
-0.0193,5319
0.00169,5149
-0.0573,6988
-0.179,9646
-0.00369,5366
-0.167,9895
-0.162,8406
0.325,1969
0.0638,4170
-0.232,10105
-0.0672,7422
0.171,396
-0.212,8866
0.125,2038
0.444,84
-0.0633,6305
0.368,142
0.271,741
-0.404,8342
0.204,1857
0.013,4922
0.0431,3936
-0.028,6488
0.205,140
-1.26,10218
-0.232,8811
0.275,1349
-0.0713,9201
-0.0375,7497
-0.0549,8194
0.162,2397
-0.833,10373
-0.13,6820
-0.00393,5254
-0.0466,5901
-0.0727,4088
0.11,3688
-0.878,9877
-0.0516,5557
2.31,617
0.0628,3338
0.229,1993
-0.0624,7775
-0.0634,8464
-0.198,5093
0.599,879
-0.697,9910
0.0229,4146
-0.255,9075
-0.0789,8216
-0.248,9423
-0.298,10159
0.0585,3620
0.207,485
-0.109,7984
0.00265,5333
0.131,1670
-0.0237,5591
0.105,487
0.0409,2759
-0.125,8925
0.00358,5065
0.252,148
-0.0143,5482
0.0868,3065
0.111,1248
-0.0917,9404
-0.712,8334
-0.263,7702
-0.122,6590
-0.0237,5567
0.0732,3162
0.142,2089
-1.28,9717
-0.152,7904
-0.209,9488
-0.357,10162
-0.0162,6270
-0.374,10013
-0.583,8930
0.278,1892
0.0216,3686
0.0202,2795
-0.134,8196
-0.0511,6452
0.182,1762
-0.0403,6400
0.0264,4045
0.106,2742
0.00123,4883
0.357,774
0.0939,2405
-0.0524,5783
-0.265,10085
-0.0418,7611
0.481,423
0.206,1371
0.576,437
-0.038,6878
0.0539,2868
-0.212,9566
0.0878,2586
0.167,988
0.122,3151
0.106,2892
-0.397,10078
0.0705,1935
-0.0228,5368
1.44,0
-0.00663,5371
0.284,83
-0.0252,6396
0.189,329
0.849,642
-0.251,8244
0.128,1103
-0.0265,5610
-0.152,10176
0.146,2524
0.292,1152
-0.00372,5069
-0.0872,6756
-0.11,7420
-0.0253,5973
-0.586,9998
0.035,4313
-0.148,8185
-0.232,9908
0.0368,2680
0.115,875
0.0835,2969
-0.06,4899
-0.268,10063
0.0902,3503
-0.0987,9547
-0.0636,7178
-0.0925,8804
0.219,266
-0.137,6159
0.317,259
0.12,1760
0.0249,4228
-0.0178,6290
-0.173,10001
-0.115,9108
0.452,207
-0.0286,5699
0.095,1827
-0.01,5626
0.0929,2074
-0.00658,5366
0.237,610
-0.0165,5392
0.0896,1495
-0.0225,5676
-0.258,9862
-0.2,9113
-0.103,7353
0.104,1668
-0.000832,5007
-0.0825,9171
-0.0414,6521
0.194,963
0.0541,2783
-0.0754,7222
0.0714,2167
0.155,2528
0.148,1474
-0.0983,9448
-0.204,6703
-0.0263,6474
0.215,826
-0.133,8961
0.189,2597
-0.028,5248
0.0394,4171
-0.106,8664
-0.0696,8222
0.156,1103
-0.0861,7842
0.21,787
-0.0398,5853
0.0257,3897
-0.195,10079
0.00315,4635
-0.0103,5386
-0.153,8663
-0.0657,7391
-0.331,10291
-0.159,10327
0.158,1278
-0.121,8342
-0.0323,6490
-0.195,8257
-0.036,6261
0.0743,2440
0.00665,4805
-0.00621,5186
0.199,2813
0.00451,5047
0.303,954
0.0535,3647
-0.124,7744
-0.179,8021
0.065,3722
-0.0393,6091
-0.0848,8632
-0.191,10156
-0.0853,7094
0.115,1507
0.0739,2411
-0.0158,5722
-0.149,9214
-0.145,8671
-0.0573,3721
-0.117,8942
-0.11,7921
-0.0733,7979
-0.158,8945
0.56,30
0.0516,3398
-0.0144,5568
0.0527,3659
-0.0597,6547
0.0488,2406
0.00953,4309
0.00276,4882
-0.147,8525
-0.304,10359
-0.116,6947
0.0216,4431
-0.212,9769
-0.241,9327
0.238,1363
0.188,630
0.129,2104
-0.158,9650
-0.225,10071
0.0195,4616
-0.000276,5011
-0.354,7842
0.245,1180
-0.279,9473
-0.119,9763
-0.232,8793
-0.486,7878
0.0423,3737
-0.0407,6321
-0.125,10293
0.052,2010
0.0917,3464
-0.0388,7357
0.0396,4169
0.0612,2864
0.054,3002
-0.046,6805
0.161,1438
-0.28,8692
-0.0402,7078
0.192,2000
-0.00533,5235
-0.0325,7089
-0.0107,5385
0.0258,4131
-0.164,8149
0.15,597
0.121,2769
0.153,1195
0.262,626
0.0197,4242
0.331,1869
-0.157,7705
-0.0261,5904
-0.041,6179
-0.00817,5262
0.0517,3807
-0.13,7083
-0.173,8915
-0.0543,7255
0.0654,2236
0.252,1270
-0.113,7925
0.176,1040
0.00308,4993
-0.0474,8485
0.176,886
-0.169,10059
-0.186,9351
-0.229,9766
0.257,823
0.0608,2821
0.155,1195
-0.169,9418
0.193,565
-0.333,9495
-0.251,7518
0.0254,3964
0.156,387
-0.0765,7480
-0.033,6052
0.141,2713
0.0486,3458
-0.00509,5112
0.0298,3103
-0.151,7875
-0.136,8330
-0.23,8438
-0.0155,5562
-0.0592,7096
-0.161,9615
0.224,939
-0.0923,7990
-0.236,9103
-0.276,8182
0.165,1053
0.307,80
-0.377,10177
0.00432,5014
0.0632,3546
0.407,39
0.0818,1561
-0.119,9583
0.0533,3727
-0.119,9257
0.086,2645
0.113,2265
-0.195,10289
-0.114,8506
-0.107,9127
-0.0993,8714
-0.101,6951
-0.0664,7792
0.0534,3348
0.254,821
-0.0131,5507
-0.515,10116
-0.0685,6089
0.00246,5051
0.00878,4695
0.0826,2074
0.134,1940
-0.309,7913
0.193,1170
-0.0106,5740
-0.0998,8934
-0.000592,4875
0.0126,4786
0.0677,2669
0.273,1716
-0.0986,8470
0.0626,3556
-0.0676,7267
-0.0171,5373
0.0827,3457
0.189,2935
-0.0186,6483
0.0582,2893
0.0516,3570
0.0541,3746
0.183,1971
-0.139,9883
0.0837,1791
0.0579,2808
-0.113,7386
-0.108,7694
0.163,2161
-0.257,7620
-0.238,9619
-0.199,9392
-0.005,4557
-0.0488,6537
0.229,646
-0.11,5838
-0.24,9247
-0.0529,6059
0.344,1718
-0.059,7003
-0.0181,5473
-0.0703,6365
0.132,1513
0.0827,3621
-0.059,6832
0.0755,3042
0.112,2596
-0.397,10343
0.206,1215
0.0741,3113
0.211,2037
0.00631,4884
-0.123,7406
-0.0118,5086
-0.0622,7472
-0.106,9401
0.0183,4211
0.147,1871
0.0401,3324
-0.102,7493
-0.206,8293
-0.23,10381
-0.264,8390
-0.141,8156
-0.0846,7122
0.00541,5065
0.0709,1571
-0.0567,7869
-0.17,9155
-0.18,9808
0.299,1758
-0.316,9710
0.357,243
-0.0489,7874
0.14,1301
0.164,2214
-0.194,8315
0.149,2176
0.0345,3731
-0.0126,6001
-0.145,8941
0.0464,3404
-0.335,10296
0.022,3995
0.205,1030
0.118,1711
-0.335,9313
0.198,3033
-0.292,8467
0.103,2224
-0.0496,7986
-0.202,8482
0.0649,3990
-0.128,7349
1.13,374
-0.0557,8703
-0.204,10254
0.65,338
0.122,1594
-0.419,10071
-0.238,9800
0.0399,3584
-0.0684,8112
-0.00626,5159
0.157,1564
-0.0118,5335
0.0871,3321
0.251,403
-0.115,8208
-0.0162,3988
-0.211,10359
0.0454,3257
0.217,858
0.00573,4788
0.168,91
-0.0284,5451
0.511,322
-0.523,9846
-0.112,9072
0.203,1262
0.321,309
0.0849,3235
-0.116,8771
-0.0804,7352
-0.0327,5815
-0.133,9244
-0.0888,8196
-0.506,7417
-0.141,9467
-0.22,10376
0.224,2188
-0.103,9123
-0.101,10187
0.949,1154
0.00936,4789
0.28,1307
0.0341,3785
0.0527,2870
-0.0716,7296
0.0332,4419
-0.00474,4963
0.111,741
-0.075,9211
-0.0744,6982
-0.00763,4716
-0.424,9934
-0.0684,6743
0.509,449
0.0381,4103
0.0478,3469
0.0621,2449
-0.0153,5854
0.22,749
0.154,1169
0.0123,3893
0.124,1298
-0.14,7298
-0.0826,6592
-0.0874,4159
-0.0683,6642
-0.112,8150
0.362,1397
0.131,1991
-0.00276,5074
-0.141,7514
0.212,2041
0.0547,3242
0.535,905
-0.1,8555
0.0582,3998
-0.11,7635
0.458,835
-0.078,7370
-0.0187,5841
0.0273,3985
-0.024,5703
0.0747,2420
-0.169,8930
0.369,48
-0.0568,6471
0.0204,4152
0.0433,3913
0.0892,2808
-0.209,8753
0.1,3826
0.086,3257
0.076,2911
-0.0317,5939
0.079,2888
0.11,3089
0.0729,2439
-0.0832,8700
-0.00113,5427
0.0153,4617
-0.174,7569
0.0534,3942
-0.0454,6386
0.0999,2327
-0.146,9640
-0.0132,5499
-0.0636,7562
-0.0852,6553
-0.398,10459
-0.062,8178
-0.165,9120
0.0233,4228
-0.0759,7559
-0.146,8644
0.163,1327
0.0511,1446
0.121,647
-0.186,9694
-0.00502,5428
-0.177,10005
-0.0648,6770
0.0056,4900
-0.117,8668
-0.268,9310
0.0951,2707
0.00868,4784
0.0858,2705
0.119,1892
-0.072,6925
0.0264,4388
-0.148,8793
-0.121,8445
0.0643,2786
-0.337,9473
0.353,2304
-0.34,10141
-0.136,9407
-0.00561,5474
0.0395,2984
-0.00902,4771
-0.159,7667
0.0569,4359
0.174,1643
0.00819,4599
-0.0249,6079
-0.0462,7564
-0.0495,7118
0.198,922
0.000207,4839
0.088,1894
0.0313,3182
-0.0987,7081
-0.0431,6206
-0.111,8170
-0.116,6743
-0.0981,8365
-0.38,10472
0.102,2636
0.127,2474
0.231,2066
0.104,1336
-0.0981,8802
-0.224,10063
-0.0855,8144
0.0617,3812
-0.12,8305
-0.0543,7319
-0.0883,8014
-0.0895,8053
-0.0483,6372
-0.0199,5380
-0.0606,7044
-0.0612,7704
-0.0921,8694
0.0501,3317
-0.0136,5409
-0.67,10416
-0.056,7172
-0.0166,5313
0.221,830
-0.000987,4951
0.124,543
-0.113,8585
-0.0668,7065
0.136,650
-0.174,7845
0.0777,2137
0.203,900
-0.0846,7665
0.0546,3451
0.185,681
-0.223,8118
-0.124,9420
-0.0809,6035
-0.184,9674
0.0112,4763
-0.0641,8060
-0.0198,5990
-0.0689,6693
0.141,1511
-0.113,8195
-0.0502,8490
-0.202,9107
-0.103,10066
0.0535,3812
-0.00512,5328
0.147,1457
0.505,390
-0.195,8907
0.0188,4277
0.213,858
0.0333,4001
-0.202,5913
-0.115,8397
0.0282,3660
-0.0886,7177
-0.104,7661
-0.05,7226
-0.1,8180
-0.128,9240
-0.323,9920
0.174,608
-0.114,8613
-0.254,8313
-0.212,7967
0.0254,4042
-0.0944,8559
0.136,1785
0.0643,3347
0.349,56
0.382,456
-0.339,10239
0.195,468
0.000967,4921
-0.1,6701
-0.0329,5508
0.0342,4057
-0.111,8660
0.114,1709
0.147,1744
-0.0917,8219
-0.111,7832
-0.238,9804
0.138,2094
0.0235,3890
0.0369,3738
0.319,514
-0.12,9231
0.148,2372
0.43,352
0.175,1092
0.0742,2749
0.5,1298
-0.0127,5248
-0.209,8808
0.1,1796
0.0675,3644
-0.119,8719
-0.277,10212
0.38,39
0.143,1685
-0.19,8674
0.0343,3053
-0.0639,7902
0.0202,4246
-0.108,6976
-0.298,9114
-0.148,9176
0.0851,2068
-0.0629,6998
-0.0538,6921
0.262,803
-0.0184,5743
-0.0368,6167
0.0283,4452
-0.0202,5809
-0.354,9721
0.189,1923
0.0432,3487
-0.347,9592
0.309,17
-0.0554,7180
-0.0548,6819
-0.189,9560
0.153,776
-0.176,9801
-0.00821,5243
0.188,819
-0.187,10128
-0.133,7934
-0.035,5235
-0.186,10381
0.179,2392
-0.164,9976
-0.0667,7040
0.279,871
-0.301,9581
0.0866,3452
0.0877,2328
0.0893,1970
-0.213,7069
0.0277,4245
-0.0694,7920
-0.0214,5688
-0.0207,6459
-0.0555,8250
-0.296,10058
-0.0966,6560
-0.188,9386
-0.301,10031
0.0972,1879
-0.124,9731
-0.153,9233
-0.176,9425
0.577,411
0.0611,3641
0.297,426
0.084,1700
0.0477,3995
-0.213,10214
-0.225,7643
0.331,582
0.0168,4187
0.122,1493
0.159,674
-0.206,9664
-0.00644,5617
-0.0326,6405
0.00217,5070
0.0616,3168
0.184,1028
-0.475,10125
0.197,2413
0.447,12
0.0776,1362
0.265,529
-0.0178,6487
-0.38,10361
0.131,1540
-0.125,9270
-0.000491,5089
-0.0216,6091
-0.333,8639
0.0749,3615
-0.0953,7601
0.207,2169
0.0485,3855
-0.149,8271
0.154,2253
0.0252,3924
-0.16,9412
-0.184,7875
0.0745,1417
-0.0907,9973
-0.119,8065
-0.0558,5347
-0.0973,8036
-0.052,7018
-0.128,9269
0.108,1630
-0.0723,7517
0.125,2389
0.233,2662
-0.21,8579
0.277,685
0.104,2247
-0.0214,6100
-0.013,5491
-0.255,10318
-0.0846,7820
0.0348,3402
0.104,638
0.00933,4903
0.121,1815
0.196,1662
0.0771,2533
-0.0841,8744
-0.0263,6258
0.0544,3611
0.0396,4125
-0.243,7673
0.248,2036
-0.0111,5273
-0.0153,6429
8.71e-05,5164
0.155,711
0.0273,4229
-0.0927,6935
-0.151,8498
0.218,354
-0.168,8124
0.575,144
-0.00406,5051
0.229,404
-0.0617,7521
0.0534,2941
-0.246,10400
0.261,632
0.0725,3354
-0.124,7600
-0.0751,8349
0.0272,3728
0.521,79
-0.191,9282
-0.244,8546
-0.168,9684
-0.0143,5613
-0.0857,8586
-0.177,9078
-0.242,10216
0.0476,3647
-0.244,7781
-0.199,9283
0.129,1059
-0.161,9779
-0.14,8555
0.244,145
-0.0314,7965
-0.0172,6146
-0.0255,6220
-0.0128,5605
-0.324,9669
-0.17,9092
-0.0297,6417
0.0942,2853
0.11,2203
0.0449,3837
-0.139,9465
-0.14,7896
0.13,3118
-0.05,6818
-0.08,9643
-0.0189,5360
-0.173,9045
0.0859,3739
-0.0872,7844
-0.0786,6929
-0.00193,5240
-0.0835,6883
0.192,1402
-0.281,9254
0.0832,3524
0.101,1920
0.0368,3724
-0.0383,5735
0.114,3115
-0.0482,6376
-0.0707,7988
-0.094,6280
-0.00491,5147
-0.0137,5388
0.000575,5062
0.32,68
0.0353,4388
-0.0175,5570
-0.0133,5591
0.222,652
0.00267,4830
0.26,552
-0.162,8347
0.0104,4507
0.00549,4779
1.65,3
-0.111,7734
-0.138,9222
-0.0613,6657
-0.0884,9341
0.162,337
0.161,1620
-0.143,7299
0.218,1099
0.00466,4846
0.151,47
-0.063,7543
0.311,1289
0.00933,4764
0.0776,3333
-0.127,8393
-0.0266,5932
-0.0853,9381
0.381,23
0.187,2817
-0.0846,6518
0.0213,4522
-0.0126,5406
0.0184,4427
0.0277,4034
0.444,629
-0.19,8701
0.0101,4696
0.0463,3884
-0.0979,8891
0.0702,2754
0.0322,4045
-0.0555,6189
0.22,420
-0.0148,5557
-0.0908,8970
0.129,2516
-0.0648,6564
-0.437,10361
0.0281,4307
0.0612,2071
0.0389,3335
-0.149,10359
-0.182,8275
-0.239,8950
0.131,2626
-0.113,8976
0.125,2363
0.205,1203
-0.0555,7250
-0.339,9128
-0.0871,8971
-0.0206,6108
0.0316,4141
-0.277,10025
-0.051,7251
0.195,1570
-0.206,9426
-0.0827,8233
-0.0442,8202
0.354,268
0.052,3338
0.0056,4638
0.611,142
-0.0976,9331
0.199,202
0.152,910
-0.108,8042
0.314,1193
0.121,3344
-0.139,7447
-0.0127,5565
0.0761,3714
0.0342,4037
0.12,2414
0.22,2270
-0.0896,9649
0.0688,2608
-0.039,5618
-0.14,8833
-0.305,10362
0.23,384
0.0394,2904
0.108,1308
-0.103,7633
0.0744,3665
-0.131,7104
-0.152,8986
0.0182,3164
0.121,764
-0.0537,6106
-0.0901,8145
0.253,2678
0.315,1320
-0.0754,6909
-0.148,9251
0.0887,2475
-0.045,5981
0.112,1597
-0.0616,5616
0.199,241
0.0817,1812
0.0129,4761
0.458,303
0.408,605
-0.107,7359
0.0798,2621
0.797,1120
-0.152,8524
0.188,1178
0.191,1022
-0.0703,7299
-0.0407,6895
0.0215,4481
-0.116,8238
-0.089,7465
0.383,118
-0.0512,6334
0.502,52
0.111,1627
0.0553,2555
-0.273,8459
-0.423,9818
0.083,3367
0.0432,3299
-0.00331,5269
-0.021,5679
-0.0535,5769
0.16,2169
-0.164,9990
-0.112,7203
0.468,294
0.347,99
0.398,103
0.119,631
0.0288,3989
0.0574,2473
-0.0685,8478
-0.287,10289
0.239,1681
0.242,1780
0.369,326
-0.21,8118
-0.282,9048
-0.0507,5853
0.219,1972
-0.0997,9242
-0.0446,6419
-0.0906,6565
-0.0422,6032
-0.195,8101
-0.108,7604
0.171,1199
-0.138,8270
0.0168,4080
-0.07,8048
0.14,1113
0.0235,4154
-0.0723,8206
0.145,948
-0.341,9116
0.103,3286
0.146,2088
0.0862,3249
-0.0957,8695
0.00289,4949
-0.195,7794
0.447,583
-0.0648,6140
-0.252,9849
-0.00641,5790
-0.0954,8296
0.529,186
-0.0827,8674
-0.853,10146
-0.14,9188
0.122,1855
-0.181,9396
0.0164,4659
-0.154,10185
0.203,2026
-0.226,7446
0.00609,4928
-0.202,10165
-0.101,7383
-0.46,10368
0.0586,3045
-0.0346,4916
-0.0354,6696
-0.0424,6651
0.214,871
0.115,1848
0.0336,4204
0.374,1539
0.167,528
-0.0349,6252
-0.266,9704
-0.186,9980
-0.274,10024
0.502,32
0.0302,3683
-0.123,9160
0.256,278
0.00837,4766
-0.136,7461
0.105,3604
0.0924,2909
0.2,1629
0.117,2368
-0.2,7627
0.203,1199
-0.0586,6358
0.0285,3316
-0.058,4998
-0.572,10399
-0.0646,8602
-0.172,9131
-0.0133,5658
0.0367,3220
-0.126,8264
-0.0314,5669
-0.00414,5203
-0.147,8112
0.0123,4344
-0.187,10142
-0.0324,6541
-0.559,8811
0.0359,3832
-0.0189,5251
-0.0374,6334
0.0514,2783
-0.208,9116
-0.157,8649
-0.105,7657
-0.28,10012
0.144,2300
-0.0863,8850
0.274,1005
0.0605,3393
0.177,1941
0.413,557
-0.158,8932
-0.127,10330
0.112,2748
-0.206,9947
0.161,2169
0.26,660
-0.0943,8415
0.0388,4015
-0.0922,7736
0.112,2743
-0.314,9756
0.0101,4831
0.097,1748
-0.138,9448
-0.0451,6392
-0.125,9986
-0.0165,5312
-0.0722,8053
-0.13,9259
-0.0398,6367
-0.0765,6837
-0.00525,5074
0.157,2995
-0.11,7608
-0.178,9969
0.0199,4396
0.0246,4059
0.188,942
0.0164,4299
0.0476,3441
-0.017,6271
-0.0621,7384
0.147,1037
-0.0816,7763
0.239,154
-0.199,8060
-0.062,8400
0.178,1144
-0.463,9791
0.0109,4810
0.399,749
-0.123,6601
-0.0615,8115
-0.17,8887
0.0041,4529
0.00952,4683
-0.11,6892
0.117,2368
-0.568,10475
0.103,1430
0.0543,3561
-0.0972,7609
-0.169,6436
0.0699,2402
-0.127,10042
0.104,1641
-0.119,8528
0.181,1944
0.243,1385
-0.197,7555
-0.031,6997
-0.129,8355
-0.0538,6016
-0.109,6785
0.133,889
-0.0166,5811
-0.102,8487
-0.108,8917
-0.0265,5896
-0.183,9899
0.259,1486
-0.0741,7301
-0.0832,6620
-0.0248,5550
-0.0874,4439
-0.0944,6888
-0.0263,6278
0.00225,4953
0.257,805
-0.365,9621
0.0488,1809
0.256,605
0.118,1721
-0.0471,8931
0.366,285
0.0756,2433
0.54,152
0.407,84
-0.0271,6701
0.00757,4796
-0.051,6436
0.145,3043
-0.172,7560
0.0766,2810
-0.0877,8036
-0.0704,8257
-0.813,8944
-0.0235,5435
-0.00378,4993
-0.0331,5952
0.207,136
-0.054,7753
-0.61,8598
0.318,993
-0.0787,7230
-0.0856,7347
0.014,4282
-0.0918,8648
-0.0889,7994
-0.118,8966
0.179,886
0.0903,1369
0.178,769
-0.119,9245
0.159,1997
-0.0981,8463
-0.0583,5955
-0.349,9845
0.135,2003
0.135,176
0.00931,4693
-0.0188,6338
-0.106,6642
0.16,2046
-0.121,10004
0.175,154
0.0582,3263
-0.0821,6587
0.138,2927
-0.072,7184
0.042,3807
-0.0224,6326
-0.171,9544
0.205,758
-0.231,10050
-0.15,9392
0.0528,3162
0.0743,2841
0.0868,2744
0.0818,2704
-0.0104,5488
-0.0966,6824
0.0395,2631
0.0232,4323
-0.0631,6996
0.0448,3397
0.0219,4506
-0.0425,5544
-0.0852,8408
0.0103,4594
0.0517,4048
-0.12,8910
0.0957,2160
0.00748,4829
-0.0272,5743
-0.0301,6322
0.027,4620
-0.0376,6422
0.0559,3645
-0.249,9017
0.0147,4364
-0.106,9153
-0.0266,6063
0.125,2048
0.329,1696
-0.0362,6606
-0.0408,6424
-0.0831,7837
0.235,1235
0.206,1256
-0.272,9793
-0.299,10335
-0.0415,6658
0.297,362
-0.29,10206
0.0812,3501
-0.0131,5254
0.059,3480
0.0904,1856
-0.325,10247
-0.298,9945
-0.00835,5007
-0.00805,4821
0.0937,2912
-0.356,10329
0.153,2227
0.0222,4073
0.228,1168
-0.381,10025
0.0287,3572
0.0387,4227
-0.181,8723
0.0258,4283
-0.0581,6369
0.126,2111
0.116,1102
0.0967,1962
0.356,396
0.00345,4880
-0.0641,6715
-0.00993,5333
-0.363,10418
-0.0713,6593
-0.337,10259
-0.0125,5099
0.0249,4290
-0.255,10199
-0.249,9558
0.0147,4406
0.139,1813
-0.188,9113
-0.206,9028
-0.0906,7292
0.157,594
-0.201,9870
-0.103,8572
0.126,1661
0.115,1012
0.0782,1866
-0.0105,5599
0.0946,1652
-0.068,7842
0.0405,3867
-0.114,9917
0.00824,4791
-0.00901,5531
0.0186,4031
-0.0959,7558
-0.481,10383
-0.312,9488
-0.14,8090
-0.0299,5919
0.0295,2721
0.0262,4314
-0.208,9388
-0.0708,7568
-0.243,9092
0.0843,3416
0.0174,4495
-0.0584,7021
0.0931,2422
0.082,3556
0.103,2340
-0.0735,8405
-0.0553,6562
-0.204,9720
-0.461,10458
0.058,2576
0.0995,3294
-0.0139,6213
-0.0284,6798
0.0677,3652
0.00738,4809
0.00284,4625
0.194,2565
0.292,95
-0.149,8930
-0.0244,5290
0.00209,5080
-0.137,8152
-0.315,10098
0.0486,2705
0.124,1040
0.0382,3809
0.149,940
-0.289,9482
-0.77,10304
-0.216,9684
0.0978,1663
0.301,125
-0.247,10113
-0.195,8985
0.0386,3445
-0.101,8300
-0.122,8328
0.00699,4771
-0.0659,7350
-0.0479,6363
0.417,1814
-0.0352,6765
0.101,2259
0.236,3160
0.468,1237
0.131,1913
-0.0337,5472
-0.0135,5375
-0.0556,7143
-0.00537,5149
0.126,2473
0.0662,2923
-0.186,9635
0.208,498
0.0554,1826
-0.0385,6132
0.0601,3555
-0.121,7142
-0.0603,6479
0.0804,1564
0.155,768
0.283,1778
-0.0879,6807
0.0524,3746
0.0679,3086
-0.286,10451
-0.128,7722
-0.254,9890
-0.00264,5079
-0.581,10153
0.0207,4458
0.441,574
0.0948,1424
0.115,1361
0.0247,4440
0.0818,2317
0.11,2043
0.0717,2071
-0.11,6851
-0.045,6618
0.47,110
0.37,596
-0.119,7592
0.00556,4838
-0.0073,5322
0.317,662
0.0419,3905
0.229,171
0.0796,2483
-0.0535,7379
-0.00786,5239
0.0492,3121
-0.172,9933
0.0469,2614
0.135,779
0.129,831
-0.129,9609
-0.104,9624
-0.231,8851
-0.0404,7705
0.423,94
-0.145,9091
-0.275,9938
0.0417,3806
-0.159,8475
-0.0558,7255
-0.0616,7354
-0.00478,5472
-0.0351,7018
-0.0729,6851
0.213,854
0.153,2662
-0.00478,4649
0.0735,1426
-0.046,7815
-0.209,9835
0.00315,4723
-0.015,5612
-0.176,7469
0.181,333
0.061,3458
-0.334,8171
-0.209,7641
-0.0608,6827
-0.4,9835
-0.152,8051
-0.12,8702
-0.505,8085
-1.1,10163
-0.254,8736
0.0906,3968
0.163,2072
0.0592,3893
-0.00765,5054
-0.271,9180
0.165,452
-0.014,5621
-0.133,8153
-0.124,8372
-0.47,9971
-0.0716,6658
-0.0665,8193
0.147,1347
-0.00432,5245
0.0642,2982
0.466,198
-0.137,8945
0.0243,3520
-0.201,9986
-0.387,10407
0.188,2378
0.0358,3806
-0.0709,9111
-0.103,7787
0.0741,3681
-0.00924,5477
-0.344,9896
-0.248,8418
0.0615,601
-0.00917,5829
-0.0213,5695
0.679,11
-0.103,8170
0.0195,4579
-0.0564,6206
-0.105,9280
-0.0809,7755
0.0779,2990
-0.00149,5231
-0.0643,6595
0.0414,3270
-0.0709,8210
-0.0481,7404
0.339,96
0.167,2131
0.153,1952
0.208,1862
0.02,4673
-0.0331,6760
0.0986,2493
-0.259,8899
0.24,264
0.127,1574
-0.0893,8190
0.124,1159
-0.215,10345
-0.164,8279
0.169,509
0.0111,4634
-0.129,9376
-0.0402,7617
-0.0563,7284
0.112,1603
-0.14,7860
-0.0405,5010
-0.0805,8501
-0.128,8584
-0.146,8950
0.139,1421
-0.0674,7157
-0.0151,5960
0.000271,5138
0.145,1381
-0.2,9713
-0.00746,5351
0.329,1771
-0.299,10303
0.117,881
0.0224,3740
0.164,1820
-0.144,8489
0.0224,4556
0.117,652
0.00687,5027
0.0528,2836
0.109,1540
0.107,2163
0.0821,2711
0.0813,3747
-0.00159,4983
-0.127,9562
0.133,2193
0.254,170
1.15,31
-0.0855,6327
0.00284,4921
-0.0133,5922
-0.0151,5576
0.0513,3097
0.0852,2890
0.0601,3456
-0.187,8135
-0.125,9741
-0.0189,5716
0.39,219
0.0412,3883
-0.172,8301
0.108,2291
-0.112,8321
0.215,812
-0.169,9233
-0.0178,5235
0.237,1094
0.0478,2217
0.329,1437
-0.0516,6426
0.113,1803
0.14,2340
0.14,3200
0.0784,1348
0.0392,3326
0.514,96
0.23,2144
-0.196,8902
0.555,606
0.139,1182
-0.144,9690
0.0278,4139
0.0987,1797
-0.184,8229
-0.0351,6373
-0.184,8904
-0.178,9267
0.0773,3288
0.164,2035
-0.111,7937
0.141,797
-0.145,8568
-0.274,9934
0.0412,3892
0.139,2882
-0.358,10402
-0.286,10274
-0.232,8059
-0.0248,6793
-0.00382,5384
-0.114,9553
0.213,2446
-0.0698,6139
0.174,622
-0.00616,5358
-0.377,9361
-0.0213,6148
0.0798,3067
-0.00141,5107
-0.138,7778
-0.0509,9554
-0.0816,7766
0.238,1333
-0.129,6771
0.0178,4404
0.0681,2865
-0.000534,4780
-0.115,8981
0.106,2332
-0.116,8525
0.155,919
-0.165,9631
0.0479,3590
0.331,1426
0.0914,2377
0.0649,3562
-0.0416,6208
0.117,2925
-0.00132,5250
-0.334,10443
0.29,652
0.011,4640
0.0676,3236
0.262,737
0.218,420
0.285,247
0.39,43
-0.0281,5235
0.0493,3505
0.0401,2718
-0.0811,9604
-0.266,9753
-0.146,8754
0.032,3934
0.193,646
0.0399,3322
0.0405,3401
-0.0365,5776
-0.164,8979
-0.0526,6394
0.144,2083
0.0659,3938
0.1,1255
-0.166,9157
0.175,2105
-0.468,9894
0.0535,3673
0.0735,2983
-0.0177,6000
-0.0916,8035
0.116,1536
0.313,556
0.15,1601
0.0531,2933
0.11,1617
-0.605,9339
-0.00479,5171
-0.0603,7197
-0.0398,5660
0.041,3606
-0.0813,8405
0.107,2399
-0.27,9526
0.37,164
0.0152,4528
0.00185,5200
-0.159,10235
0.093,3281
0.108,3014
0.12,1859
-1.14,10264
0.0128,4489
-0.272,10426
0.92,466
0.0398,4028
0.213,1397
-0.0617,5635
-0.0476,6211
-0.146,9178
0.0454,3137
-0.0587,6637
-0.181,9157
-0.0714,8982
-0.0848,7569
0.418,162
0.136,2288
0.0575,3271
0.116,3282
0.481,41
0.109,1287
0.00315,5065
0.058,3744
-0.0443,7088
0.21,1913
0.254,1913
0.122,1706
-0.136,7649
0.0697,3281
0.386,584
0.129,2042
-0.0327,7156
-0.0375,7520
0.0492,2671
0.0879,2391
0.116,3033
0.0979,1726
-0.14,7245
0.0155,4503
-0.0125,5716
0.0543,2909
0.0269,4446
0.205,354
0.0825,2860
-0.552,10464
0.195,1334
-0.0423,6626
0.0349,4396
0.264,450
0.304,2837
-0.0524,7300
-0.0883,9483
0.00278,5227
-0.209,9819
0.203,1828
0.217,2705
0.0424,2627
-0.399,8817
0.129,1526
-0.0117,5338
-0.513,6844
0.628,378
-0.0603,7924
-0.0259,5600
0.556,2
0.0926,2029
0.174,405
0.112,2396
-0.246,10308
-0.0739,8727
-0.207,9609
0.19,1554
-0.31,6706
0.0765,3833
-0.0349,6826
-0.0152,6138
-0.572,10385
-0.302,9437
-0.343,10439
0.19,1294
0.13,1068
-0.0114,5675
0.0715,2933
-0.11,7414
-0.198,6905
-0.251,8954
0.00421,4828
0.118,1517
-0.512,10318
-0.197,8547
0.000698,5068
0.276,628
0.0321,3738
0.00591,5003
-0.127,8296
-0.0277,6084
-0.0194,6000
-0.0239,5528
0.00184,5243
-0.0363,5651
0.221,1516
-0.0369,6752
-0.155,9910
0.0452,3701
-0.0656,6985
-0.057,6080
-0.298,10339
0.0963,1777
-0.0291,6494
0.13,2546
-0.171,9771
-0.0921,7714
0.0143,4614
-0.391,9608
-0.0795,7744
-0.0979,7334
-0.0917,8157
0.286,810
0.0793,3326
-0.0501,7096
0.147,1269
0.000545,4922
-0.012,5545
-0.135,9036
-0.0329,5768
0.108,1057
0.0778,2432
0.716,1221
0.148,1720
0.13,2736
-0.128,8619
0.016,4144
-0.0754,8085
-0.153,8106
0.208,990
-0.0139,5795
-0.395,10424
-0.0328,6118
-0.058,6568
-0.2,8749
-0.198,9585
-0.0718,8349
-0.0217,5833
-0.254,10105
-0.078,9159
-0.121,8754
0.204,583
0.196,1255
0.0478,2940
0.0976,3008
-0.0236,6532
1.38,195
0.416,889
-0.256,7932
-0.041,5652
-0.0136,5717
-0.0516,7272
-0.193,10421
-0.0855,7846
-0.322,10249
-0.171,9902
-0.0357,7539
0.0298,4232
-0.21,9370
0.318,1126
-0.0617,6175
-0.0419,5992
0.0934,3030
-0.0338,6163
-0.11,8310
-0.101,8522
0.204,197
-0.0145,5833
-0.15,9220
-0.112,8143
0.0986,3027
0.127,2963
-0.149,9663
0.308,172
0.0109,4828
0.0528,3546
-0.0539,6218
0.00869,4652
-0.44,10042
-0.0287,6552
-0.011,5295
0.31,173
0.754,11
-0.173,9883
0.0125,4273
-0.179,8070
0.155,758
0.0262,3952
0.092,2199
0.0104,4771
0.0877,1033
0.198,574
-0.0785,7016
-0.183,8268
0.0889,2933
0.428,902
0.0147,4335
0.147,2426
0.00292,4831
-0.0561,7236
0.605,31
0.133,2624
0.0102,4481
0.0976,2766
0.0245,4486
0.173,2208
0.0932,3579
0.0133,4696
-0.0797,7818
0.0913,3163
-0.0316,5522
-0.0967,7933
0.305,976
-0.199,8601
-0.0485,6088
-0.0551,7707
-0.00166,5497
0.154,1374
-0.0877,7780
0.321,894
-0.028,6169
-0.204,10373
-0.266,10170
0.137,2189
-0.343,8633
-0.151,7765
-0.151,9795
0.0353,3773
-0.422,10326
0.156,1278
0.351,343
0.1,766
-0.0553,7413
-0.168,9185
0.0446,4469
-0.109,9052
-0.0669,7061
0.00103,5161
0.174,1657
-0.206,10025
0.113,921
0.0189,4394
-0.239,8133
-0.0946,6517
-0.0502,7430
-0.052,7200
0.232,350
0.0979,3098
0.299,676
-0.254,8023
-0.0441,7245
-0.018,6359
-0.115,6808
0.505,219
-0.0606,6831
0.0232,4178
-0.0173,5286
-0.0544,7247
0.0534,3527
-0.078,6901
-0.0804,7298
-0.106,7966
-0.0671,6174
-0.105,8359
-0.303,10473
0.0536,2895
0.0651,3215
-0.0404,5927
0.111,1170
-0.216,10298
0.255,335
-0.0883,7059
0.056,3006
-0.156,7134
0.108,1976
-0.0202,5546
0.0529,3375
0.0483,3263
0.11,2925
0.0366,3802
0.0732,2622
0.117,1167
-1.02,10275
-0.31,9961
-0.256,10018
-0.0124,5220
0.628,81
0.0398,3781
-0.0521,5917
-0.316,6245
0.0901,2358
0.11,731
-0.0563,8479
0.062,3206
-0.0374,7118
0.0146,4612
0.279,1519
-0.0234,5706
-0.0914,8463
-0.113,7798
-0.118,6362
0.248,1436
0.0513,4066
0.0667,2621
0.0343,3281
-0.17,9199
0.104,2760
0.766,72
-0.043,5921
-0.0405,6330
-0.0169,6331
0.0731,3703
0.241,605
0.0868,2101
0.131,3085
-0.0712,6921
-0.0616,7739
-0.0104,5517
0.0473,3924
0.124,2405
-0.287,4630
0.0645,2913
0.121,593
-0.122,8910
-0.0104,5334
-0.157,8980
0.038,3271
-0.0557,6791
0.0603,2525
0.0228,4387
0.0067,4821
-0.19,8816
-0.0568,6408
-0.419,10455
0.0073,4883
0.0804,2402
0.155,2332
-0.144,8699
0.0743,3629
-0.0714,8345
-0.0895,8089
0.292,61
0.054,3841
-0.0068,5177
-0.0407,7233
-0.0978,9113
-0.0778,7891
-0.135,9799
-0.133,8962
0.121,1611
0.388,1078
0.173,1429
-0.0339,7207
0.209,658
0.174,1116
-0.122,7140
0.0423,3897
-0.079,7163
-0.0417,6744
-0.0554,6892
0.22,1574
0.0566,2997
-0.268,9653
-0.0817,6514
0.00884,4553
-0.0784,7217
-0.159,7438
0.0046,4977
-0.269,9794
0.0687,3463
-0.152,7875
-0.167,8757
0.0175,4702
-0.0535,7870
0.0812,2756
-0.122,7659
0.129,2131
-0.0441,5841
-0.402,9154
0.127,2862
-0.0438,7568
-0.0874,8664
-0.0359,6579
0.138,2863
-0.268,8510
0.235,144
0.0137,4299
0.263,402
-0.0338,6262
0.147,3650
0.294,1210
-0.0107,5150
0.0123,4774
-0.134,9377
-0.0211,5567
0.467,4
0.00995,4574
-0.202,8964
0.232,1292
-0.0359,7219
-0.132,9585
0.07,3829
-0.0362,5982
-0.0562,6914
-0.056,7213
0.00042,5053
0.15,1049
-0.0567,7962
0.344,155
-0.0239,6335
-0.186,9698
0.0537,3536
-0.279,10171
0.726,153
0.206,795
0.0208,4585
-0.0416,6349
0.0964,2723
-0.174,9353
0.039,3803
-0.319,9126
-0.166,9899
-0.0498,6751
0.111,2543
0.205,315
0.177,989
-0.14,8112
0.0526,1901
0.151,1234
-0.117,6254
-0.085,6157
-0.0584,8335
-0.234,10315
0.0048,4866
-0.0714,8955
-0.041,6674
-0.0649,7676
-0.0745,7365
0.329,939
-0.0937,8500
-0.0353,7679
0.128,2647
0.0668,3443
0.107,3001
0.0473,3792
0.0287,4205
-0.0914,7689
0.122,2957
0.177,1118
0.167,2593
0.019,4768
-0.162,8346
-0.311,10360
-0.0207,5535
0.0291,4337
-0.375,8377
0.034,4291
-0.0361,6569
0.0486,3956
0.181,3525
0.656,1262
-0.241,8222
0.119,2613
-0.119,8319
-0.0301,6765
-0.123,9283
0.0505,3901
-0.0296,6221
0.177,923
-0.0241,6379
-0.121,8961
-0.00966,5315
0.368,4
0.0199,4355
0.536,234
-0.000811,5009
0.0832,837
0.173,598
0.141,2638
0.398,31
-0.000935,5031
-0.126,9220
0.0782,1348
-0.0886,7158
-0.0756,8693
0.0652,2311
0.243,1541
-0.179,10171
-0.00536,5432
0.147,791
0.103,2295
-0.139,7641
-0.091,7607
-0.0229,5970
0.0615,2829
0.0191,4438
-0.08,7734
-0.369,9549
-0.13,7526
0.0693,2663
0.349,296
-0.144,10025
-0.0334,5751
0.245,687
-0.00478,5340
-0.0606,6427
0.193,1250
-0.102,7437
0.0138,4627
-0.163,8664
-0.0476,6091
0.0309,3479
0.058,2873
-0.137,8588
0.0386,4265
0.108,2615
0.16,2347
-0.0427,7462
-0.0352,7247
-0.253,8762
0.0764,3893
-0.386,10198
-0.0669,6841
0.123,2353
-0.0552,5548
0.106,2139
-0.00429,4934
0.0406,3558
-0.18,8307
-0.0992,6868
0.00916,4629
-0.0471,6691
0.0771,2804
-0.312,10235
-0.196,7164
-0.0396,6756
-0.00117,5040
0.125,516
0.143,2093
0.411,1206
-0.0599,7219
-0.147,8331
-0.0641,7650
-0.259,7958
-0.165,8632
-0.041,6405
0.0236,4110
-0.0111,5832
0.0758,2145
-0.113,8832
0.0939,1710
0.189,2382
-0.0676,6741
-0.064,7350
-0.0914,8435
-0.12,7456
0.0169,4616
0.0997,2730
-0.305,10243
0.035,3920
0.00441,4894
-0.14,9813
0.251,60
-0.0783,8131
-0.0803,8806
0.127,349
0.03,3325
0.168,692
0.0053,5062
-0.276,9981
0.0168,4589
-0.0361,7978
0.119,1506
0.0333,3243
0.295,728
0.119,3253
0.152,1671
-0.0948,6752
0.00977,4956
-0.00788,5069
0.0511,3029
-0.0278,6514
-0.194,8533
0.0433,3559
0.196,666
0.0833,2706
-0.172,9136
-0.204,8959
-0.175,10191
0.0864,1320
