coef,rank
1.07,648
0.461,240
-0.00354,4922
0.000986,4858
-0.232,7160
0.0656,3189
0.0863,1857
-0.0133,5193
-0.0511,6016
0.335,331
-0.00891,5525
-0.056,7676
-0.0268,6202
0.366,296
0.152,2765
0.255,2957
-0.00513,5563
-0.0594,8740
0.129,1507
-0.0659,7233
0.107,2859
-0.506,10100
-0.0984,7902
-0.21,9987
0.312,1514
-0.131,7818
-0.0589,7437
-0.797,10174
-0.415,10413
0.235,311
-0.271,10276
0.0128,4765
0.0871,3025
-0.0923,6285
0.215,297
0.027,3688
0.0132,4716
0.0858,3361
-0.222,9921
0.134,1753
-0.0897,8457
0.0689,1435
-0.219,9417
-0.0195,5980
0.119,2332
-0.0581,6189
-0.0768,9140
0.0979,587
-0.191,8748
0.0204,4340
0.149,1467
-0.202,9035
-0.0276,5967
-0.0688,8507
0.0566,3750
-0.0123,5298
-0.638,10331
0.359,361
0.0695,1868
-0.128,9553
0.228,1154
-0.13,8475
0.0331,3806
0.0224,3860
-0.0396,6732
-0.0485,7410
-0.168,10156
-0.134,9487
0.0219,4427
-0.477,8946
0.173,300
-0.0128,5421
0.0896,2670
0.0616,3459
0.196,1722
0.0173,4613
-0.054,7226
0.0112,4545
-0.0619,7842
-0.16,9714
-0.754,10360
-0.131,7440
0.088,1409
-0.12,9345
0.0108,4702
-0.146,7874
-0.0594,7254
-0.00768,4885
0.0219,3728
0.0397,2937
-0.123,7983
0.209,1051
-0.0562,6232
0.0568,3847
0.00911,4974
-0.0315,6469
-0.18,8210
-0.0102,5562
0.121,1573
0.0608,3252
-0.0146,5747
0.11,1773
-0.142,9570
0.0653,3572
-0.419,10269
-0.221,9299
-0.0947,6746
-0.155,8742
0.165,1465
0.191,1212
-0.189,7249
-0.128,7821
0.0116,4443
-0.0572,8237
-0.0891,7658
0.0137,4628
-0.101,8944
0.0302,4046
-0.0178,5599
0.0372,3073
0.101,1269
0.0773,1888
0.239,1547
-0.206,7739
-0.0616,7839
-0.414,10346
-0.14,7429
-0.105,7779
-0.152,8743
-0.208,9850
0.0736,2148
0.2,688
-0.0477,6065
-0.0198,5979
2.39,350
0.229,1897
-0.1,8802
-0.0818,8021
-0.391,9844
-0.0123,5820
-0.183,8873
0.09,2739
0.221,556
0.0669,2725
0.15,1909
-0.0711,6740
0.0283,3791
0.13,2443
-0.066,7124
-0.0309,6523
-0.417,8153
0.361,143
-0.436,10172
0.184,977
0.0478,3480
0.0534,3372
0.0829,3490
0.122,1771
0.0404,3935
-0.183,9448
0.0777,3253
-0.142,10321
0.0412,3840
-0.000912,5241
0.179,382
0.0085,4871
-0.0592,6944
0.0341,3772
-0.0846,7211
-0.425,10243
0.159,902
-0.0818,8552
-0.0324,7509
0.212,478
-0.155,10020
-0.114,7705
0.317,1383
0.0912,816
0.144,824
-0.286,10126
0.0639,2650
0.307,53
0.0802,1508
0.114,173
-0.0352,6524
0.0339,3618
0.0112,4777
0.229,180
-0.233,7762
-0.0632,7759
-0.0438,6152
0.0415,2354
0.0395,3647
-0.00207,4989
0.454,387
-0.101,8965
-0.0849,7592
0.281,1161
-0.0173,6195
0.229,1185
-0.176,9370
0.194,1902
-0.154,10193
-0.0701,6743
-0.0415,6102
-0.0244,5577
-0.15,9130
-0.27,10009
-0.0231,6022
0.0156,4440
0.0503,3283
0.0188,4639
0.0187,4280
0.0646,3173
0.0362,2684
-0.00564,5327
0.134,1857
-0.129,8566
-0.162,7685
0.73,1804
-0.0256,5900
-0.105,9399
0.0667,1706
-0.143,8339
0.166,2608
-0.135,8196
0.178,678
0.0574,2299
0.0534,2476
-0.209,8891
0.233,416
0.0505,3867
0.363,505
0.0187,3875
-0.072,6891
-0.0379,6097
0.145,3115
0.0157,4542
-0.018,5256
-0.33,8938
0.29,1459
-0.143,9725
0.0936,2213
0.1,1992
-0.0253,5857
0.0792,2626
0.301,734
0.16,814
-0.258,9969
-0.0763,8145
0.0607,1979
-0.147,7636
0.669,118
-0.221,8809
0.388,1302
-0.0192,5828
0.0621,2556
0.103,1792
-0.138,8872
0.0206,4611
-0.273,10099
0.0116,4381
0.08,2955
-0.281,9704
-0.119,8802
0.0376,3840
-0.129,6149
0.269,858
-0.0318,7423
-0.0296,5938
0.135,1318
-0.325,10223
0.0426,3822
-0.172,9681
-0.106,7534
0.241,391
0.0971,2325
0.351,350
-0.0255,5956
0.159,1023
-0.0484,5925
-0.021,5700
0.0494,3958
-0.156,8688
-0.143,8715
0.0113,4516
0.141,1682
0.245,803
-0.0238,5542
-0.0546,5994
-0.0443,5685
0.102,1061
-0.0426,7137
0.0758,3845
0.0331,3966
-0.158,8629
0.0633,4014
-0.0163,5614
0.0726,2495
-0.091,7436
-0.0574,6712
0.0524,3811
-0.00754,4900
0.0266,3595
0.0707,3755
-0.0262,6173
-0.438,10014
0.0762,3392
-0.00573,5264
0.0917,1159
0.073,2552
-0.124,8391
-0.481,10399
-0.0341,5627
0.29,362
0.207,2221
0.0984,2993
0.28,1065
0.00129,5000
-0.093,7084
0.61,349
-0.00233,5279
-0.0973,8534
0.081,2348
0.0227,4395
-0.0318,6718
-0.132,5929
0.0247,4203
-0.167,10155
0.0803,3321
0.0471,3774
-0.203,9081
-0.799,9240
0.109,1393
0.0987,1394
-0.0856,7935
-0.0931,8719
-0.0587,7462
0.0647,3799
-0.0655,8235
-1.01,10281
-0.101,7106
0.0508,2275
0.00235,4893
0.035,4270
-0.0829,8741
0.175,1166
0.268,2898
-0.343,8116
3.16,170
-0.378,6386
-0.149,4960
-0.253,9683
0.128,2727
-0.268,10313
0.142,1840
0.14,336
-0.023,6378
0.107,3681
-0.0695,6337
0.0253,4261
-0.358,8923
0.284,302
0.0269,3690
-0.0887,5854
-0.114,7585
0.0621,3123
0.0497,3235
-0.02,5553
0.0925,1682
-0.047,6419
0.263,1034
-0.0128,5323
0.287,1133
-0.0569,6308
-0.0619,7528
-0.327,10170
0.00348,5113
-0.267,10198
-0.131,5812
0.256,164
-0.06,7054
-0.0988,7918
-0.114,8436
-0.15,7762
-0.142,8919
-0.0768,7689
-0.024,5912
0.0962,2282
0.0194,4657
0.251,343
0.539,186
0.00587,5008
-0.115,9031
-0.11,6842
-0.235,10327
-0.172,8890
0.116,2046
0.0823,2624
-0.00783,5417
-0.283,10418
0.0611,3655
-0.116,7565
0.4,1772
0.021,2802
-0.0546,7364
0.137,2332
0.396,415
0.0204,4579
0.0463,4163
-0.0224,6003
-0.0702,9228
0.00186,4902
-0.115,8682
0.0118,4681
0.186,880
-0.175,8369
0.163,243
0.0094,4743
0.0778,3171
-0.12,8450
-0.128,7786
-0.116,7201
0.00344,4857
0.0202,4635
0.374,371
0.0428,4066
-0.106,8019
0.17,288
-0.0595,7724
0.00219,5232
0.101,2181
-0.0577,6602
-0.101,8549
-0.0448,5966
0.126,1352
0.0778,1432
0.102,3511
0.0496,3864
0.748,4
-0.0258,5161
0.103,1376
0.185,925
-0.317,10165
0.397,1213
-0.0392,5746
-0.0909,6930
-0.181,10157
0.0174,4623
-0.3,9457
0.0893,2919
-0.0669,6628
-0.0574,6907
-0.0106,5468
0.127,281
-0.132,8178
-0.0456,6428
0.0762,3286
0.0677,3260
-0.109,8993
0.214,1187
0.0156,4419
0.126,2716
0.0291,4311
-0.252,10185
0.181,611
-0.119,9015
-0.157,8781
0.442,75
0.134,859
-0.0934,7848
-0.314,10408
-0.197,9106
-0.0302,6428
0.147,2541
-0.00288,4974
0.0172,4421
-0.131,9681
0.0678,3850
-0.000206,5342
-0.0477,6223
0.161,1993
0.146,1463
0.115,1550
-0.129,9870
0.101,1710
-0.00794,5387
-0.136,9080
-0.0592,6773
0.0321,2137
0.185,669
0.0652,2668
0.0976,3578
0.506,462
0.143,935
-0.0472,6756
0.0794,2596
0.122,1920
0.192,973
-0.000518,4981
0.204,349
0.0439,2476
-0.0716,7967
0.0506,4073
-0.152,9316
-0.448,10047
-0.0552,6033
0.0245,4480
-0.132,9848
-0.0355,5109
0.424,411
0.952,1
0.0045,4662
0.00725,4539
0.0796,2249
0.209,285
0.0787,2572
0.0203,4391
0.186,1330
0.107,1149
-0.201,9965
0.336,1342
0.0554,3838
-0.261,9756
-0.145,6876
0.0485,3017
-0.114,8603
0.101,2690
0.117,1572
-0.00641,5410
-0.0572,6371
0.166,622
-0.0327,7249
0.929,1081
2.39,205
0.558,1211
0.00599,4963
-0.331,10232
0.0375,3916
-0.111,7659
0.133,2213
0.245,425
-0.0547,7182
-0.163,8902
0.234,606
-0.0594,7267
-0.53,9605
-0.358,8445
0.144,761
0.0297,4221
-0.0149,5655
0.411,113
-0.0203,5456
0.0445,3779
0.245,523
-0.117,8061
0.0478,3556
-0.0306,6346
-0.00971,5391
-0.0309,5989
-0.125,9423
-0.0226,5832
0.183,556
-0.12,8649
0.125,2347
0.128,925
0.0229,4351
-0.041,6099
0.143,1673
0.0463,3501
0.0476,3657
-0.269,10134
0.264,292
-0.111,9606
-0.133,6830
-0.0126,5628
-0.221,9055
0.713,216
-0.0415,6763
-0.0704,7069
-0.25,9390
0.0368,3589
-0.0174,5988
0.0133,4715
-0.103,9038
-0.0819,8137
-0.181,9660
-0.184,10086
-0.187,8650
-0.373,9824
0.0114,4341
0.041,3896
0.143,2080
-0.0467,6381
0.0682,3267
-0.166,9665
-0.0562,6870
-0.184,10150
0.169,1768
-0.152,7864
-0.0775,7359
-0.0908,7126
-0.103,8315
0.0426,3145
-0.0272,5772
-0.0618,7959
0.235,1730
-0.209,8592
0.251,225
-0.0507,6978
-0.0134,5503
0.0949,2040
0.125,2390
0.212,1188
-0.0656,7238
0.0313,3554
-0.0264,6433
-0.0486,6520
-0.00604,5452
-0.112,8522
-0.0734,8076
0.0054,4958
-0.0246,6109
-0.629,9586
0.00963,4725
0.00301,4943
0.0102,4424
-0.0909,9411
0.0676,2503
-0.404,10346
0.0139,4757
0.0464,3195
0.165,54
-0.0235,5992
-0.255,9965
0.459,253
-0.202,9181
-0.121,8884
-0.223,9721
-0.184,5310
-0.245,10258
0.299,950
-0.0542,6312
0.144,659
-0.372,10445
1.76,696
0.00574,5095
-0.0227,4985
0.0729,3557
-0.0337,6919
0.0606,3743
-0.172,5603
0.944,1027
-0.367,10320
0.0308,4438
0.0175,4663
-0.218,9369
0.0433,4161
-0.139,10387
-0.0496,6322
0.195,1880
-0.521,9917
-0.0296,6254
-0.259,10360
0.0609,2455
-0.0316,5706
0.0974,1971
0.176,2582
0.0428,3359
0.0292,4038
-0.00927,5526
-0.145,8307
-0.157,7677
-0.0676,6779
-0.0883,7222
-0.0636,8000
0.126,1538
-0.0724,6626
0.00355,5044
0.0568,3939
0.17,2194
-0.0647,7640
0.0261,4513
0.316,503
-0.21,6480
0.0614,3331
-0.0048,5235
0.0322,3684
-0.176,9911
0.00682,4935
-0.327,9904
-0.187,9218
-0.221,8292
-0.069,6197
-0.0634,6981
-0.164,9503
-0.153,6568
0.0777,3102
0.0915,2421
0.094,2057
0.0646,3000
-0.0433,6958
-0.194,9286
0.503,521
0.319,2661
-0.105,9117
-0.0525,7680
-0.0838,8686
-0.319,10136
0.0514,2423
0.0458,3873
-0.0828,7584
-0.041,6749
0.186,2186
-0.162,8710
0.19,1105
0.0288,4452
0.123,2034
-0.116,9198
-0.176,7188
-0.233,8810
-0.172,6344
0.126,2948
0.104,885
-0.0534,6407
-0.155,8415
0.0455,3282
0.209,674
-0.0533,5560
0.125,1981
0.172,1040
0.123,1882
0.142,985
0.296,1698
-0.39,8858
0.0591,2877
0.178,163
-0.0357,6173
0.0538,3659
0.128,2390
0.02,4558
0.204,246
-0.00796,5478
-0.223,9744
-0.361,9532
-0.131,8836
-0.191,10303
-0.118,9011
0.0102,4584
-0.103,8152
-0.125,7347
-0.131,9975
-0.184,9635
-0.127,7577
-0.206,10436
-0.114,8004
0.0378,3816
0.157,1510
0.0191,4781
0.0901,2650
0.0917,2698
0.0605,3514
0.229,1877
0.0648,3684
0.214,1350
0.0817,1646
-0.041,5582
0.205,2417
-0.118,7913
0.123,2664
-0.181,8933
0.17,702
-0.057,6778
0.434,322
-0.00503,5595
-0.172,7523
-0.0786,6446
0.383,171
0.0918,1434
-0.0323,6034
-0.335,10312
0.0606,3412
0.162,2000
0.113,1358
-0.251,10119
0.0582,472
0.037,445
-0.0334,9509
-0.0224,9300
-0.0218,9231
1.85,642
0.297,752
-0.507,7038
-0.00122,5191
0.045,3621
0.196,2273
0.272,1365
-0.355,10157
0.0403,3463
0.466,186
0.211,618
-0.156,7788
0.0206,3915
0.0505,3378
0.0284,4167
1.07,187
-0.365,8414
-0.206,7857
0.017,4369
0.181,1290
0.12,2285
0.747,564
0.512,74
-0.0773,6887
-0.146,6458
0.0942,2364
0.0169,4445
-0.107,6551
-0.0598,6827
-0.0277,6447
-0.143,9954
-0.129,7011
-0.267,9808
-0.144,9074
0.151,2565
0.0323,4297
-0.146,9907
-0.00913,5893
-0.141,8647
-0.122,8663
0.0854,2835
-0.25,9214
-0.0786,6787
0.0119,4728
0.401,285
-0.173,9595
-0.0206,5593
-0.474,10475
-0.047,7150
-0.135,8826
-0.199,9964
-0.181,10306
0.000441,5014
-0.0035,5011
-0.0868,7967
-0.111,8907
-0.269,9526
-0.119,8711
0.0899,3200
0.248,1590
0.00545,4853
-0.092,8053
-0.066,5820
-0.0525,7496
-0.134,8452
0.161,957
-0.0583,7617
0.0313,3975
-0.0294,6252
-0.0992,8275
0.185,1273
-0.203,8661
0.077,1945
0.137,648
0.0995,3495
-0.026,5465
-0.115,8611
-0.017,5597
0.314,308
-0.0104,5735
-0.00405,5343
-0.262,7874
-0.0633,6884
-0.022,6110
-0.377,8399
-0.0719,7717
-0.493,9282
-0.103,9760
-0.0125,5662
0.0622,2508
-0.385,6622
-0.213,5757
-0.107,6052
0.521,582
-0.0314,6285
0.0804,3848
0.178,878
0.0238,4187
-0.174,9573
0.243,219
0.0574,3353
0.153,1538
-0.105,7648
0.263,175
0.0716,2913
-0.159,9645
0.166,2039
-0.121,9209
0.167,1927
-0.106,7270
0.153,1713
0.0983,2589
-0.509,8009
0.231,2446
-0.0822,7016
0.00729,4781
-0.391,10347
-0.22,9185
0.0792,3482
0.0658,3122
-0.172,9260
-0.119,9568
-0.166,9629
0.0412,2378
0.318,207
0.136,2234
-0.0385,6001
-0.0855,8811
-0.129,7985
0.0183,4304
-0.0301,5236
0.0135,4816
0.344,1089
0.165,1687
0.0259,3772
0.0858,2777
0.226,2437
-0.0889,7871
0.199,701
-0.158,8066
-0.00577,5480
-0.234,9730
0.0624,3658
-0.0887,7764
-0.117,8547
0.355,529
0.032,3329
-0.027,6233
1.44,518
1.2,549
-0.192,8661
-0.0367,6820
-0.15,7510
-0.0457,5840
0.108,3279
0.412,334
-0.0294,6084
-0.022,5263
0.0315,3427
-0.313,10216
-0.333,6215
-0.0365,5210
-0.45,8986
0.0344,3755
-0.00993,5227
0.027,4285
0.0377,4055
-0.471,10000
0.155,3290
0.174,298
-0.0594,7127
-0.249,8673
-0.00226,5110
-0.638,10441
0.103,1821
0.0325,3579
-0.0521,7654
-0.0621,9158
0.339,93
-0.0433,7157
0.148,410
-0.185,10306
0.0239,3810
0.0738,2907
0.08,2034
-0.159,7412
-0.00567,4749
0.22,694
-0.0401,5954
-0.00304,5241
-0.362,10371
-0.106,7797
0.136,2162
-0.089,7340
-0.028,6287
-1.1,9712
0.456,438
0.457,1032
-0.0367,5779
-0.0121,5220
-0.164,9495
0.306,1016
0.0671,3114
-0.145,9165
0.0855,2801
0.236,378
0.0343,1903
-0.198,8923
-0.00769,4185
-0.124,6522
0.0843,2784
0.0179,4088
-0.134,9139
0.413,287
-0.0207,5590
-0.339,9392
-0.112,9197
-0.187,9506
-0.0564,7814
0.244,966
-0.147,7968
0.323,1402
0.124,2748
-0.226,8904
0.0801,2209
0.15,1756
-0.126,9119
-0.0642,6527
-0.449,10062
0.068,2698
0.00157,4851
0.0986,3288
0.135,1284
-0.00538,5124
-0.326,9471
-0.0902,8259
-0.0466,6861
-0.137,7917
0.222,813
-0.172,8063
0.0693,3922
0.386,72
0.0174,4524
-0.0137,5546
0.16,1661
-0.0571,7398
0.634,968
0.0586,2053
0.0914,1789
0.135,2998
-0.0289,5594
-0.0591,6247
-0.154,8893
0.031,4071
-0.0863,6949
-0.167,8095
-0.0618,6733
-0.00463,5286
-0.0421,6693
-0.023,6280
-0.0544,7202
-0.0796,8061
-0.0184,5630
0.00715,4888
-0.142,8367
-0.0327,6578
-0.00233,5251
0.0165,4365
0.175,2187
-0.0757,7569
-0.358,9966
-0.158,9160
-0.0817,8702
-0.117,6518
0.0426,3687
0.032,4126
-0.17,7305
-0.0669,6947
-0.248,10363
-0.0898,6531
0.077,2900
-0.288,6348
-0.0817,7777
0.287,231
-0.0726,7544
0.00745,4933
-0.0531,6425
-0.972,9559
-0.298,10469
0.157,1427
-0.121,9345
-0.0242,5087
0.0766,3813
0.016,4514
0.0459,3410
-0.13,9892
0.212,553
-0.087,7455
-0.234,9688
0.0404,4000
0.187,460
-0.0815,8169
-0.0824,8215
0.193,603
0.272,1244
-0.152,8215
-0.135,10041
-0.000663,5207
-0.174,9178
-0.0994,8480
0.127,3191
-0.195,9146
0.238,747
-0.0799,7256
0.0258,4454
0.104,2959
0.252,1582
0.0895,3280
0.0198,4305
-0.162,10101
0.123,2891
0.0531,3402
0.141,1425
0.392,411
-0.00952,5207
-0.0196,6273
-0.006,4992
0.0373,4138
-0.174,8957
-0.745,10024
0.409,154
-0.0162,6050
-0.104,8979
-0.0113,5409
-0.0196,6013
-0.00372,4835
0.0177,3876
-0.042,6071
-0.25,9006
0.62,756
0.207,2866
-0.182,8383
-0.0536,6652
0.0712,2146
-0.236,10287
-0.0384,6597
0.00767,4911
-0.129,8052
0.108,1343
0.027,3892
-0.248,9766
-0.271,9383
-0.039,5920
0.0181,4459
-0.0558,7933
-0.241,10184
0.0663,3462
0.0648,3464
0.0744,2816
-0.528,10364
-0.287,10348
-0.168,8095
0.108,1536
0.407,220
-0.041,7495
0.133,2132
-0.162,10372
0.124,2417
-0.168,9594
0.0237,4110
-0.255,7927
-0.0087,5222
-0.137,10375
-0.0768,7577
0.111,2139
-0.166,8958
0.0675,3559
-0.331,9652
-0.0449,7128
-0.0711,8124
-0.143,7882
-0.252,9271
-0.187,9088
-0.276,10220
-0.0384,6319
0.188,248
-0.546,9012
-0.0852,7439
0.214,2113
0.0428,3719
-0.0602,7142
0.519,659
0.0497,3744
-0.144,7553
-0.107,6600
-0.0989,7901
-0.101,9159
-0.0196,5667
-0.131,8840
0.0204,4283
-0.00109,5265
-0.186,10072
-0.038,6941
-0.136,9769
-0.141,10071
-0.144,6861
0.0531,3853
-0.0625,7422
0.0912,2216
-0.00189,5284
-0.347,5464
-0.296,8702
0.139,2470
-0.659,9701
-0.0603,7221
0.0237,4307
0.0246,4373
0.106,1958
-0.157,8901
-0.177,9308
0.257,1356
-0.0972,9519
-0.153,9677
0.184,910
0.00914,4786
0.0156,4558
0.239,465
-0.133,10257
0.0457,3782
0.0788,2568
0.0924,2245
0.116,1392
-0.0779,8926
0.0115,4462
-0.129,9113
0.108,2968
0.489,1366
-0.245,8263
-0.105,7922
0.0427,3715
-0.0399,5751
-0.0895,8858
-0.0639,6383
0.147,2296
-0.217,9699
0.0736,2863
0.00927,4719
-0.585,9442
-0.036,6071
0.185,2244
0.0433,3299
0.00169,5146
0.0571,2903
-0.0792,6339
0.0582,3515
0.136,2147
-0.0152,5903
0.00819,4762
0.439,8
-0.024,5874
-0.0067,5291
-0.00588,5179
-0.541,10395
-0.201,7983
-0.0599,6544
0.36,289
-0.0794,6328
-0.141,5293
-0.0579,6925
0.0832,3548
-0.035,6146
-0.0151,5377
-0.157,8660
-0.0567,5558
0.0622,2753
-0.1,8050
-0.144,8700
0.117,3522
0.144,721
0.00544,4772
-0.0499,7523
0.167,959
-0.108,6407
0.158,955
-0.404,9495
-0.0971,8470
-0.0165,6106
-0.224,9168
0.0441,3586
-0.356,9990
0.0797,2270
-0.0722,8140
0.0953,2306
-0.113,7579
-0.0905,8854
-0.064,7689
-0.0584,7771
0.147,472
-0.0571,7193
0.0847,2964
-0.222,8764
0.0131,4866
-0.105,9017
0.0708,2804
-0.0738,6944
0.287,288
0.0144,5016
0.0326,4312
0.0183,4473
0.0455,3299
0.0993,1969
0.0245,4399
0.123,1299
-0.357,9459
-0.0615,7868
-0.0361,6799
0.013,4285
0.269,1150
0.0915,1998
0.372,969
-0.146,9409
0.0228,3606
0.0193,4129
0.0283,4162
-0.178,9664
-0.106,7842
-0.152,7522
0.0175,4505
0.0932,1612
-0.168,8785
-0.264,10326
0.0477,4150
-0.07,6453
0.00245,5299
0.0105,4577
-0.116,8769
0.0381,4109
-0.192,9699
0.181,1449
0.0979,2476
0.0226,4139
0.282,580
0.087,2670
-0.00649,5177
0.284,929
-0.083,7544
-0.00519,5069
0.017,4395
-0.121,9070
0.00246,4752
-0.366,6335
0.0307,4290
-0.0101,5214
0.201,350
-0.152,9196
-0.165,8596
0.274,62
0.0649,2937
-0.106,8668
-0.755,10382
-0.444,6181
-0.133,5618
-0.0182,5279
0.374,568
-0.0701,5784
0.0105,4866
0.0657,3219
0.0156,4608
0.000517,5114
-0.185,10423
-0.121,7728
-0.163,8430
-0.0224,5597
0.0522,3954
-0.00844,5342
0.0704,2028
0.035,3827
0.15,1490
0.216,1691
-0.0217,6261
-0.258,9473
0.0214,4161
0.0247,4673
0.231,250
0.0303,4256
0.0468,3547
0.0518,2661
-0.0498,7374
-0.0154,5533
-0.0591,7087
-0.418,9915
-0.261,6719
-0.0996,9398
0.139,167
-0.232,9463
-0.223,9957
0.464,2061
-0.475,8741
-0.0828,8408
0.095,2347
-0.182,9352
-0.112,9450
-0.0517,6877
-0.0973,7613
0.0924,2268
-0.0367,7216
0.0284,3776
-0.0905,8486
0.00954,4695
0.111,1773
0.0105,4227
0.124,1266
0.16,2457
0.0246,3929
-0.0255,5401
-0.0943,7839
-0.158,10195
0.233,297
-0.214,9319
0.0223,4669
0.197,218
-0.00463,4995
0.0385,3475
0.124,1484
0.0145,3743
0.0645,4233
0.00803,4705
0.202,1277
-0.213,9792
0.0498,4083
-0.0717,6307
0.028,4429
-0.0731,6669
-0.107,6176
0.172,1608
-0.183,7028
-0.181,8879
0.0637,2914
0.0382,3979
0.441,911
-0.142,8603
0.301,615
0.204,1009
-0.105,8391
-0.105,7966
-0.257,6722
-0.231,6918
0.0919,3182
0.119,1862
-0.043,6289
-0.00268,5235
0.0664,2871
-0.0348,5942
0.0839,3564
0.15,1887
0.0587,1373
0.574,13
-0.174,9860
0.0456,3721
0.389,129
0.0317,4405
-0.0364,7018
-0.0283,7001
0.12,1555
-0.0644,7182
0.119,1336
0.462,567
0.0705,3264
-0.0895,7958
0.156,1263
-0.244,10106
0.0148,4878
-0.637,10420
0.0773,2404
-0.0886,8378
-0.00876,5301
-0.0512,6409
0.316,338
0.117,2920
-0.00366,5084
0.138,1315
-0.154,9195
0.183,984
-0.292,8561
-0.162,9317
0.1,1578
-0.193,9625
-0.172,8707
0.186,925
-0.257,10158
-0.128,6922
-0.0647,7097
-0.0738,9120
0.00607,4915
-0.0316,5977
-0.0494,5977
0.0537,3909
0.0587,2989
-0.191,9996
-0.14,8947
0.0135,4649
-0.0812,6443
0.632,314
0.101,503
0.0568,1791
0.124,1368
-0.181,10009
0.539,786
-0.127,9720
-0.0917,8720
-0.194,9102
-0.0637,6850
-0.0351,5484
-0.045,5671
0.0657,3060
0.115,2083
0.0296,3968
0.218,664
-0.0514,7053
-0.031,5576
-0.00621,5291
-0.118,8718
-0.0989,9173
0.153,1934
0.0579,3937
-0.169,8548
-0.05,6744
-0.0849,9224
0.0121,4680
-0.0743,6148
-0.322,8575
-0.00895,4906
0.329,426
0.0443,4130
0.205,326
0.141,648
0.116,1582
0.221,1020
0.0279,4339
-0.105,8296
0.056,3455
0.694,150
-0.0525,6164
-0.0209,5147
-0.194,9306
0.181,229
0.276,991
0.0418,3977
-0.0727,9544
0.182,2729
0.0451,4264
0.00456,4806
0.00847,4576
-0.0155,5849
-0.629,8563
0.214,2879
-0.17,8229
-0.0644,7560
-0.031,6200
-0.0852,6313
-0.385,9793
-0.283,10471
-0.045,6744
-0.164,8158
0.0536,3293
0.266,22
0.0464,3770
-0.152,9010
0.0588,3233
-0.235,10146
0.0111,4796
0.139,1415
-0.116,8859
-0.456,10450
-0.261,9014
0.111,1884
0.0568,3467
-0.055,6507
0.162,1051
0.333,639
0.336,191
0.00238,5045
0.186,60
0.224,2642
-1.04,10255
0.15,3331
0.0137,4758
0.111,849
0.0142,4598
0.0342,3939
-0.029,5828
0.159,1239
-0.0613,7315
0.0631,2482
-0.218,8901
0.321,368
0.117,2254
0.00785,4710
0.0771,3113
0.352,113
0.0191,4434
-0.0898,8014
0.0462,3964
-0.0889,7727
-0.0941,7218
0.0359,3983
0.063,2267
-0.0467,6611
0.208,1153
0.217,1808
0.483,1360
0.0737,2706
0.046,3543
0.109,2958
0.116,3150
0.141,1359
0.225,553
0.0196,4104
0.0838,1898
-0.00997,5604
0.039,4095
0.0849,2687
0.0857,2732
0.0965,2143
0.131,1193
0.134,1650
-0.257,10169
0.00679,4720
-0.283,8751
-0.00694,5577
0.0416,3771
0.0269,4405
-0.0315,5304
0.133,1735
0.178,1834
-0.0227,6144
0.0349,4422
0.0212,4216
-0.281,10217
-0.0214,5553
0.0256,4303
-0.0942,8727
-0.0782,8027
-0.00791,5287
-0.0407,6291
0.124,2676
-0.0362,6753
-0.0696,8578
0.106,3016
0.0535,4064
-0.0439,6615
-0.0402,6301
-0.0317,6017
-4.01e-05,4892
0.205,229
0.2,1539
-0.0497,6048
-0.114,8478
0.0264,4182
-0.109,7097
-0.101,7293
0.111,2515
-0.126,6940
0.255,1768
0.00124,4862
-0.174,9679
-0.0687,7520
-0.0466,6380
-0.0572,6080
-0.214,8630
0.00737,4907
-0.0296,6308
-0.373,9898
-0.0526,7441
-0.127,7948
-0.056,6134
-0.246,10198
0.0279,4346
0.083,1313
-0.0606,7128
-0.0741,8074
-0.214,10076
-0.199,10271
-0.0681,7941
0.0574,3811
-0.0847,7289
0.161,1227
-0.0705,5746
-0.12,7061
-0.0876,8419
0.164,1395
-0.0144,5461
-0.0447,6464
-0.0839,6491
0.387,67
0.0871,1857
0.344,1269
0.0944,1852
0.109,2256
0.244,864
0.00499,4905
0.0595,2868
-0.13,9781
0.379,942
0.197,1971
-0.119,7610
-0.0665,7529
0.00447,4886
-0.0743,8280
-0.134,7652
0.166,1561
0.11,2600
-0.175,9249
0.0934,2306
-0.226,8129
-0.169,8053
-0.117,6945
0.815,1776
-0.0765,7143
0.0945,3196
0.0234,4387
-0.0276,5952
0.0652,2472
0.0384,3537
-0.0015,5004
0.295,363
-0.14,8615
0.0272,3789
0.0312,3429
0.0366,3485
0.0714,3776
0.0756,3381
-0.0708,6396
-0.024,6002
-0.0707,9408
-0.13,9460
-0.055,6440
0.232,1894
-0.451,10343
-0.00278,5047
0.157,1142
0.0794,1647
-0.0617,6770
-0.115,7859
0.116,2037
0.16,905
0.0709,2081
-0.0864,6071
-0.689,8085
-0.0908,7028
0.359,119
0.113,2202
0.35,508
-0.146,9019
-0.141,8124
0.183,1321
0.127,1015
-0.0555,7491
0.299,189
0.00933,4933
-0.23,10033
-0.0905,6913
-0.223,10293
-0.247,10188
-0.0444,6080
-0.0033,4903
0.06,3860
0.0358,3893
-0.139,7876
0.312,464
0.0678,3536
-0.0712,7065
-0.00305,5542
0.0274,4442
-0.543,6995
-0.0999,7784
0.0994,3860
0.00556,5008
-0.0307,6653
0.166,2428
1.07,1306
-0.0841,6944
-0.0864,6629
-0.129,6684
-0.104,8690
0.118,1478
0.0837,3333
-0.0879,6176
0.306,638
-0.0369,6726
0.0686,2725
0.0488,3953
-0.0418,6333
-0.0117,5338
-0.15,5245
0.0554,2509
-0.239,10224
-0.0823,7374
0.0382,4456
-0.0495,6456
-0.299,10263
-0.0446,7527
-0.0939,6970
0.201,1461
0.0477,3800
0.34,1059
0.186,1776
0.0887,2964
0.135,1016
0.0162,4327
0.119,2594
-0.11,8824
-0.18,9449
-0.00608,5939
0.0683,1219
-0.367,10190
0.0418,3659
-0.0253,6212
-0.135,8487
-0.0331,6567
-0.0575,7416
0.205,2584
-0.000961,4957
-0.0512,5308
-0.0464,6032
-0.00778,5217
-0.238,9457
0.119,2394
0.187,2316
-0.0388,5854
-0.206,9555
0.171,746
0.212,1340
-0.0102,5252
0.36,1150
0.306,317
-0.0729,6590
-0.124,9528
0.259,333
0.0273,3853
0.0901,2493
0.103,2643
0.246,758
0.238,270
0.0116,4701
-0.0553,7356
-0.0573,6476
0.293,2028
0.0791,1459
0.0187,4514
0.0727,2238
-0.192,8978
0.262,1798
-0.0822,7797
-0.274,8975
-0.0874,8292
-0.089,6817
0.0592,3224
0.00552,5003
-0.0541,7628
-0.0355,6423
-0.0788,7810
-0.051,6795
-0.151,8360
0.0538,3149
0.177,1325
-0.14,8328
0.05,2422
-0.0523,7244
0.0154,4502
-0.306,10307
0.0905,1422
-0.0114,5580
0.063,2942
0.00936,4765
-0.0368,5841
-0.17,9535
0.201,1927
-0.158,8159
-0.339,10431
0.0526,2573
0.0826,3019
0.678,1179
-0.0705,6521
-0.00868,5252
-0.435,10456
0.0294,4025
-0.281,10015
-0.29,9222
-0.0286,6518
-0.00741,5174
-0.0823,7472
0.0286,3677
-0.607,8602
-0.146,8684
-0.111,8031
0.181,3036
0.0417,3725
-0.17,8508
0.106,2028
-0.0602,6986
0.0394,3639
-0.119,7132
0.00766,4922
0.0183,4370
-0.0133,5123
-0.166,8452
-0.181,9659
-0.0389,6833
-0.0892,9179
-0.0301,7100
-0.0693,7509
-0.0443,6046
0.00264,4957
0.283,442
-0.105,9272
0.0582,3322
0.0234,4350
-0.272,9854
0.137,2636
0.0155,4348
-0.157,9471
0.289,535
0.847,516
-0.0867,8884
-0.122,6576
0.0197,4422
0.0252,3498
0.106,3413
0.199,1766
-0.011,5563
0.0314,3860
0.461,44
-0.0847,8822
-0.187,9631
-0.502,10395
-0.193,8457
0.127,2979
-0.186,7125
-0.161,9694
0.143,603
-0.0728,8521
0.205,1634
0.231,1059
0.121,2318
0.28,196
-0.109,8279
0.0505,3781
0.126,1630
-0.404,10033
-0.232,8783
-0.205,10273
0.0426,3676
0.103,3112
0.056,3025
-0.219,8611
-0.0171,4710
-0.106,9337
-0.0443,6013
-0.153,9226
0.17,758
0.143,1753
-0.0165,4978
0.0189,4858
0.004,5016
0.00409,4993
0.0294,4406
0.188,1411
0.0581,2924
-0.106,8624
-0.011,5327
-0.301,9533
0.123,1259
-0.197,7635
-0.184,8375
-0.0655,8914
0.0114,4288
-0.0218,6061
0.00703,4606
0.0405,3937
0.216,316
-0.133,7890
0.0444,3338
-0.0664,7184
-0.0195,5241
-0.183,7780
-0.132,9272
0.129,1962
-0.177,9047
-0.233,9877
-0.151,9017
-0.132,9272
-0.199,7777
0.0827,1487
-0.0459,6954
0.0457,2848
-0.04,6955
0.143,965
-0.127,8150
0.101,3337
0.495,124
0.172,653
-0.0697,6778
-0.578,10434
0.105,2790
-0.00463,5213
0.002,5218
0.297,364
-0.13,8705
-0.261,9760
-0.0606,6114
-0.105,7838
0.0516,3709
0.103,2302
0.047,4069
0.128,1378
-0.0835,8141
-0.00919,5239
0.236,144
-0.0809,7022
0.0915,1977
0.304,1479
0.0435,4059
0.262,476
-0.0554,7574
0.04,4433
0.0139,4634
-0.124,8190
-0.0426,7632
0.304,553
0.0514,2582
0.191,1042
0.0145,4696
-0.0469,5921
0.345,1436
-0.163,7627
-0.454,10451
0.25,612
0.218,1311
0.18,3282
-0.141,7922
-0.0971,6283
-0.0555,6910
-0.247,10003
0.0436,3536
-0.00946,5633
-0.0344,5574
0.0166,4249
-0.0158,6459
-0.403,10405
0.124,2588
0.0163,4035
-0.34,8940
0.105,948
-0.044,7014
-0.178,9056
-0.168,9126
0.205,1479
0.0668,3740
0.0456,3857
0.0883,2065
0.203,421
0.0969,2035
0.0107,4646
-0.112,7865
-0.0512,6255
-0.0239,6362
-0.259,10317
0.255,1805
0.196,1756
-0.189,9214
0.0789,1564
0.0662,2692
0.122,1007
-0.12,7226
-0.12,6941
-0.00246,4983
0.014,4526
0.00905,4548
-0.016,5375
0.132,2909
-0.0431,5481
0.029,4325
0.345,1358
0.157,1728
-0.261,10150
-0.0322,6224
0.352,1273
-0.13,8422
-0.0675,7710
0.305,646
-0.374,10195
0.176,564
0.0095,4780
0.507,690
0.105,1129
-0.443,10475
0.00905,4854
0.318,476
0.238,935
0.122,2447
0.0586,3331
0.0525,3698
0.0983,2229
0.401,167
0.377,2030
-0.0784,6221
-0.0167,5623
0.396,223
0.228,562
0.025,4241
-0.122,8390
0.0898,2217
0.198,681
-0.183,9774
-0.138,8665
-0.902,10460
0.0501,3701
0.5,72
0.031,4082
0.0684,1764
0.339,223
-0.016,5262
0.176,506
0.0196,4739
0.0526,2437
0.0425,2749
-0.255,9312
-0.13,8536
0.182,1120
0.0885,2525
-0.0598,6433
0.0405,3665
0.332,207
0.097,3465
0.107,2458
0.0424,4279
0.0622,3487
-0.0916,9031
0.149,2200
-0.0166,5531
0.0764,2863
0.683,490
0.193,311
0.0282,3777
0.0134,4553
-0.0158,5403
0.0962,2554
0.492,57
-0.196,9492
0.0673,2414
0.0395,3840
0.111,1611
0.0103,4752
0.0179,4181
0.133,930
-0.0806,8378
-0.416,9696
0.338,898
-0.0398,5707
-0.0419,6483
-0.132,10033
0.031,3473
0.255,623
-0.176,7854
0.645,1022
0.0643,3984
0.115,1881
-0.0512,7823
0.0223,4555
0.102,2050
-0.165,9631
0.0241,4493
-0.058,7319
-0.169,10187
-0.254,10187
0.376,153
-0.0925,8186
-0.109,6799
0.117,850
-0.035,6330
-0.666,10473
0.172,1093
-0.153,9196
0.203,1178
0.0667,2571
0.0451,3382
0.0767,3107
-0.0479,6258
0.115,2900
-0.0751,7223
-0.146,10252
0.0934,3818
0.0361,3550
-0.00376,4970
0.0442,3969
0.0142,4787
0.0447,3418
-0.0393,7065
-0.634,10380
-0.423,10202
-0.553,10352
-0.428,9930
-0.448,10248
-0.335,9997
0.131,2750
0.0549,3795
0.0269,4279
-0.00328,5199
-0.149,9985
-0.169,8633
0.0365,3392
-0.0859,6626
-0.0181,5633
0.034,4580
-0.339,10462
-0.602,9278
-0.0554,6325
-0.103,7283
0.066,2887
0.245,331
0.0949,1468
-0.0301,5569
-0.107,8358
0.452,1053
0.0207,3969
-0.123,8683
0.0626,2805
-0.295,10366
-0.00383,5103
-0.166,8703
-0.17,9120
-0.00111,5075
-0.112,6979
0.0195,4804
0.0624,3377
-0.102,7544
0.00648,4669
-0.04,6318
-0.0619,8535
0.0156,4559
0.862,567
0.111,3373
0.0312,4023
-0.0359,5869
-0.0711,7747
-0.306,10204
0.116,2431
-0.276,9245
-0.1,8382
0.0391,4021
-0.117,9247
-0.306,10269
-0.0359,6255
0.179,2711
-0.185,7559
-0.105,8259
-0.0921,9387
0.0484,3044
0.0621,3397
-0.105,6451
-0.528,9860
0.135,539
0.0359,3342
0.339,533
-0.128,7594
-0.256,7336
-0.0553,6799
0.00752,4966
0.00763,4794
0.177,1393
0.107,3153
-0.000831,4963
-0.0646,8364
-0.153,10194
0.0793,2322
-0.15,9018
-0.0734,7889
0.31,235
0.145,1404
0.292,352
0.171,1053
-0.1,7210
-0.184,9543
-0.331,9945
-0.298,9829
0.174,1339
0.00909,4787
0.00436,4907
-0.0314,5478
0.759,1029
0.00434,4891
-0.0201,5870
0.09,2941
0.019,4674
0.0536,1999
-0.0721,7692
-0.0927,7631
-0.105,9523
0.0982,1636
0.233,2066
-0.179,9536
-0.109,7833
-0.0955,7662
-0.08,7336
0.129,1628
-0.0484,6856
0.0275,4314
-0.0839,7088
0.0451,3988
-0.209,9084
-0.23,9970
0.0826,2729
0.361,1783
-0.131,7503
0.0348,4407
-0.0551,6111
-0.133,9089
0.14,2006
0.00227,4922
0.0966,2794
0.116,417
0.0775,2316
-0.089,9354
-0.0762,6621
0.00599,4768
0.0188,4236
-0.11,7923
-0.0103,5430
-0.0946,7598
-0.183,9089
0.036,3921
-0.148,6742
0.235,1681
-0.00244,5256
0.0299,3980
0.0838,2465
-0.0258,6488
0.0232,4008
-0.0787,8282
-0.268,9564
-0.192,10104
-0.102,8673
0.068,3139
-0.259,10322
-0.0853,7889
-0.552,10454
0.158,1136
-0.228,8096
0.159,2612
-0.169,10331
0.0403,3754
-0.193,9315
-0.236,10376
-0.0593,7467
-0.133,9054
-0.124,8932
0.146,1642
0.0757,3126
-0.218,8205
0.0547,3253
0.0622,3113
0.0913,2018
-0.0648,6504
0.141,1493
-0.022,6038
0.164,1160
-0.0726,7377
0.274,547
-0.339,10055
-0.0856,7048
0.468,357
-0.0465,7207
0.0961,1544
0.00208,4784
-0.132,8261
-0.153,8467
0.0855,2443
0.17,800
0.264,774
0.055,3480
0.133,1369
0.0468,3881
-0.0588,7705
0.139,1428
-0.0559,7920
0.0448,3099
-0.319,10219
-0.224,8916
0.102,2904
-0.0148,5156
0.086,2032
-0.0451,6260
0.069,2969
-0.226,10334
-0.278,9409
-0.0954,9642
-0.0916,8690
-0.799,10466
0.453,1009
-0.332,10018
-0.172,9854
0.0622,1279
-0.00274,5164
0.185,2868
-0.199,7242
-0.23,9378
-0.278,9950
0.00766,4669
0.00444,4779
-0.0991,3712
-0.458,6937
-0.948,10248
0.363,1295
0.146,909
-0.144,8329
-0.143,8942
-0.0375,3799
-0.254,9474
-0.0979,8633
-0.00933,5924
-0.0836,7114
-0.337,10315
-0.0512,6873
0.126,3224
-0.0627,7135
-0.0509,7021
0.289,1221
-0.00758,5267
0.277,1678
0.132,1395
-0.286,10343
0.00125,4836
0.278,720
0.0136,4420
0.176,2107
0.0347,3299
-0.115,7074
-0.0499,7282
0.00876,4584
0.236,940
0.0519,3526
0.0565,3274
-0.162,8625
-0.0838,7850
-0.0531,6885
-0.0258,5612
-0.0381,5071
0.0461,3873
0.0941,319
0.00872,4745
-0.109,6984
0.111,2304
-0.402,10123
0.0101,4699
0.0518,3232
0.323,653
-0.0293,5538
-0.202,9954
-0.245,8444
-0.425,10386
-0.0494,7186
-0.319,10340
0.202,1925
-0.0343,6349
-0.263,7548
-0.0937,8668
0.035,3795
0.183,1106
0.0446,3876
0.128,2206
-0.253,9991
-0.0215,5664
-0.123,7460
-0.107,7589
0.198,1350
-0.0368,5459
-0.394,9870
0.0787,3394
-0.164,9980
0.0821,2666
0.0557,3620
0.209,819
0.221,1458
0.117,742
-0.023,5624
0.279,742
-0.128,5911
0.0266,4531
0.00951,4874
-0.117,8479
-0.0224,6435
-0.033,6430
-0.209,7766
0.663,436
0.148,1539
0.159,2640
0.295,1059
0.0271,4236
-0.0471,5549
-0.0593,5413
-0.0331,6427
-0.225,10240
-0.0758,8058
0.284,417
-0.113,8126
0.246,498
-0.0715,7602
-0.439,10457
-0.0493,7806
-0.158,7793
0.225,1269
-0.171,7781
0.00375,4756
0.0633,2274
-0.0983,9214
-0.227,8905
-0.123,7817
0.156,2791
0.00912,5132
-0.000648,5222
0.0438,3460
-0.138,8312
-0.0818,7103
0.151,2828
-0.171,8839
0.0249,3533
-0.0366,6781
0.0372,4201
0.0579,3356
0.0116,4833
0.0336,4185
-0.144,9073
-0.202,10186
0.075,2590
-0.701,10331
-0.428,9691
-0.037,5881
0.224,359
0.029,4176
-0.052,6891
-0.045,6541
0.399,24
-0.0757,6764
-0.00158,4906
-0.0288,6341
-0.156,8665
-0.00821,5146
-0.0897,7911
0.0215,4594
-0.0971,9833
-0.211,9587
-0.481,10398
0.269,1458
-0.0861,6445
-0.621,10377
0.153,873
0.0138,4834
0.0567,3594
-0.0118,5486
-0.177,9104
-0.108,7595
0.0139,4331
-0.00578,5534
-0.0265,6078
0.00636,5059
0.00142,4850
0.022,4425
0.00855,4621
-0.0841,7813
0.121,1880
-0.134,9227
0.013,4592
0.033,4108
0.137,2707
-0.00862,5441
-0.169,9840
0.0277,4244
-0.0584,6708
-0.167,7715
0.0434,3077
0.0657,2561
0.0605,3093
0.215,983
0.315,994
-0.102,6060
-0.00964,5441
-0.091,7943
0.0285,3950
0.206,347
-0.119,8382
-0.0773,7080
0.0353,3389
-0.00109,5328
0.059,3244
0.202,1196
0.0905,3666
0.0578,3523
0.0146,4444
-0.065,6459
-0.03,5913
0.0219,4706
0.189,1194
0.275,2626
0.0243,4468
0.222,504
0.208,707
0.137,1679
0.223,2432
-0.113,7650
-0.0622,7264
0.0318,3411
-0.138,8990
-0.184,9759
0.257,1009
-0.232,7678
0.447,34
-0.127,8526
-0.0987,5995
0.745,519
-0.186,9572
-0.164,9602
-0.124,8178
0.00499,5073
0.0287,4197
0.0962,2506
-0.0472,6177
-0.119,7474
-0.108,8761
-0.0552,7309
-0.0804,7511
0.106,1634
0.0869,3454
0.141,3157
0.188,783
-0.0312,7537
-0.695,10397
-0.069,6910
-0.0763,8017
0.0715,1945
-0.065,8114
-0.0992,8144
0.252,267
0.124,2278
0.0414,4395
0.0542,1197
-0.0673,8640
-0.142,9517
0.239,1402
-0.294,9646
0.0198,4466
-0.0715,6682
-0.107,9723
-0.213,10197
-0.0827,7324
-0.204,9050
-0.197,8989
-0.108,8986
-0.0729,8914
-0.00137,5377
-0.153,8616
-0.141,8820
-0.253,8588
0.361,678
0.0827,3359
0.0147,4406
-0.158,7646
-0.137,8663
-0.201,7923
-0.0636,7813
0.00383,5205
0.0307,4034
0.0896,3270
0.363,925
-0.0508,6373
0.323,31
0.127,274
-0.0495,6793
-0.0878,7263
-0.285,8928
0.357,1214
-0.374,10265
-0.247,10393
-0.0531,7489
-0.136,6690
0.305,1175
0.328,278
0.147,2218
0.118,933
0.14,1651
-0.0153,5551
-0.308,10396
-0.223,9269
0.0678,3130
-0.834,9127
-0.00762,5584
-0.413,9990
0.155,1575
0.248,2061
0.0558,3683
-0.0713,9358
-0.021,5637
-0.436,7728
0.139,2979
-0.112,6717
-0.134,6928
-0.0178,6058
-0.074,8783
0.216,3125
0.202,3382
-0.029,4201
0.166,1921
-0.0857,6001
-0.101,6303
0.62,250
-0.155,7386
0.0496,3520
-0.07,7495
0.373,2373
-0.324,5552
-0.0486,5679
0.0518,2793
0.0494,3370
-0.247,6312
0.699,295
-0.478,10044
0.313,1055
-0.0369,6073
0.843,1744
-0.22,7801
-0.0179,6327
-0.219,9396
-0.11,8557
0.0315,4281
0.752,1660
0.285,500
-0.0253,5552
0.246,845
0.0298,4214
-0.659,9206
-0.352,9450
-0.036,6059
-0.5,9060
0.0264,4704
0.00818,4763
0.0201,4509
-0.217,9255
-0.313,10049
-0.48,8654
-0.149,9740
-0.00275,4936
-0.236,10014
0.0705,2216
0.00749,4609
-0.0925,7281
-0.0533,7128
0.0347,3666
-0.059,6284
-0.0105,5237
-0.0216,5467
0.233,893
0.293,159
0.302,1232
0.0664,3095
0.316,32
0.000758,5032
0.0947,2908
0.113,1663
-0.0511,6725
0.0754,2432
0.0865,1169
0.0721,2802
-0.842,9844
0.218,3132
-0.17,6499
-0.424,9159
-0.0592,5295
0.0814,2722
-0.0941,7367
0.23,1831
0.199,663
-0.0888,8103
0.0557,2208
-0.0472,6361
0.225,1067
-0.202,10410
0.177,1640
0.0883,1959
0.0948,2590
0.0406,4270
-0.155,9577
-0.0958,8129
0.066,3567
0.0286,3936
0.00495,4873
-0.0634,7195
-0.0452,6184
-0.117,9281
0.124,1611
-0.0734,7573
-0.255,9878
0.0335,3368
0.274,785
-0.0977,8257
-0.227,9727
0.0243,3603
-0.137,8802
-0.245,9601
0.114,1351
-0.158,7416
0.207,1215
-0.183,10399
-0.0437,9395
-0.0476,6372
0.00522,4714
-0.0672,8125
-0.107,8543
-0.016,5117
-0.0342,6177
0.0334,4033
0.283,1679
-0.205,8614
-0.188,9760
0.0569,3083
-0.0264,5744
-0.0599,7068
0.0947,3359
-0.0894,7070
-0.168,7919
0.0279,3577
-0.0769,8493
0.202,707
0.121,1968
0.119,2397
0.0905,3460
-0.16,9315
0.207,309
-0.00549,5646
-0.0105,5348
0.0468,3902
0.189,438
0.0782,3155
-0.169,9565
0.314,386
0.206,1484
-0.237,8441
-0.0196,4442
-0.102,9360
0.0369,3651
0.0616,2519
-0.194,9755
-0.212,7379
-0.0905,9196
-0.0734,9249
0.0649,3436
-0.298,10107
-0.308,9935
0.163,1570
-0.0785,7279
0.209,736
-0.0974,9331
-0.0102,5389
0.194,891
0.108,3589
-0.433,9116
0.0746,2284
-0.105,9594
-0.0802,5982
-0.14,7885
-0.262,8029
-0.499,9768
-0.338,10239
0.214,1680
0.0519,4059
0.033,4068
0.0864,3779
-0.0726,6606
0.147,2601
-0.22,7860
0.0629,3004
-0.0716,8225
0.283,1214
0.132,2555
0.0925,475
-0.0226,5591
0.0443,2890
-0.103,8637
-0.212,8597
0.215,850
-0.00713,5665
0.251,107
0.0525,3613
-0.201,9482
0.0233,4482
-0.0325,6052
-0.0563,7092
0.0496,2561
-0.109,7716
-0.0545,6000
-0.101,6634
0.0216,4277
-0.181,10369
0.313,268
-0.0504,6751
-0.114,9462
-0.183,8454
-0.56,10340
-0.0321,6931
0.0202,4039
0.431,94
0.254,585
-0.0556,8365
0.0589,3884
0.0385,3100
0.0341,3967
-0.166,7447
-0.0602,6271
-0.075,6370
0.237,928
0.0678,3346
-0.00736,5891
0.0913,2475
0.0482,3567
-0.0121,5437
0.0381,4018
0.0077,4837
-0.117,9329
-0.0215,5336
0.0284,3917
-0.323,10354
0.132,2718
-0.0333,6444
-0.0203,5691
-0.313,10335
-0.0536,5439
-3.04e-05,4749
-0.173,9795
0.0475,3487
-0.104,7089
0.0944,3267
0.0314,3611
-0.0654,7000
0.23,2074
-0.188,8128
-0.17,9732
0.0104,4616
0.107,2100
0.224,1355
0.0289,4148
0.184,1638
-0.0205,5757
-0.313,10202
-0.00902,5139
0.0191,4901
0.22,1130
0.0215,4015
-0.114,8045
-0.014,5377
-0.148,8100
0.182,2213
0.0258,3830
-0.0669,7552
-0.12,9017
0.0805,3756
-0.711,10073
-0.212,8925
0.17,2601
0.00494,4877
0.0676,3567
-0.227,8337
-0.0425,6802
-0.00346,5245
-0.101,8806
-0.0408,6194
-0.0194,5983
-0.14,9521
0.102,1821
-0.0862,6804
0.0884,3112
-0.0112,5598
0.011,4892
-0.202,9588
0.267,707
-0.356,10198
-0.167,6630
-0.0943,7223
0.151,94
-0.0234,5595
-0.207,9894
0.00277,5089
0.267,587
0.139,2449
0.153,60
-0.735,8900
-1.23,10096
0.373,1941
-0.271,6578
0.0297,4034
-0.812,9872
-0.707,9264
0.151,2344
0.00315,4919
0.053,3521
0.00334,4769
0.0266,3878
0.377,232
-0.163,9036
-0.0701,6870
0.28,398
0.00141,4970
-0.18,8859
0.0297,4400
0.0882,3663
0.0749,3137
0.089,2177
-0.0111,5351
-0.0428,6392
-0.00376,5214
0.0835,2417
-0.195,8398
0.068,1673
0.136,339
-0.0317,6556
-0.0517,7942
-0.0268,5718
0.0693,3950
-0.0385,7048
0.109,2235
0.499,20
-0.0069,5253
-0.264,9767
0.249,2173
0.117,2191
-0.0239,6369
-0.182,8609
0.109,2785
0.141,1717
0.0133,4605
-0.076,7778
0.0604,3801
0.0323,3987
-0.11,6835
-0.065,7126
0.0447,3143
-0.000855,4838
0.0527,3943
-0.131,6550
-0.167,7759
-0.152,7457
0.00855,4743
0.0173,4667
0.00913,4730
-0.393,10467
-0.279,9793
0.0269,3886
0.141,1685
0.125,2563
0.0921,2487
0.0215,4364
0.0416,3903
0.216,452
-0.017,5895
-0.0248,5689
-0.0411,6484
-0.0583,6159
-0.394,10334
-0.303,10292
0.0626,1990
-0.553,10474
-0.0277,6382
0.118,2375
-0.191,8973
0.023,4271
0.187,1232
0.11,1840
-0.0131,5595
0.0342,3789
0.276,655
0.0102,4798
0.0753,2015
-0.144,9063
-0.405,10471
-0.0609,6431
0.0621,2727
0.00454,4852
0.0567,2585
-0.0622,7554
0.00559,4762
0.0854,3038
-0.107,8911
0.0749,2166
-0.0341,6833
-0.0605,6647
-0.234,9982
0.387,361
-0.027,5482
0.163,278
0.0461,2877
0.161,2203
0.114,2607
-0.0361,6296
0.0974,1999
0.143,1518
-0.0581,6988
-0.00276,5010
0.172,1622
-0.0579,6110
0.0227,3602
0.194,1081
-0.0706,7286
0.217,2518
0.367,989
-0.217,7421
0.0156,4458
-0.0783,8290
-0.0578,6237
0.0431,4181
0.149,2494
-0.0577,5619
0.0708,3003
-0.0525,7248
-0.252,10384
-0.372,10407
0.0692,3436
0.732,80
-0.0749,8847
-0.0246,6511
-0.188,4718
0.138,2481
0.0699,3248
-0.211,9577
-0.0228,6716
-0.0918,8567
0.0606,3580
-0.448,10133
-0.0812,7935
-0.127,7813
-0.0974,8878
-0.0275,6482
0.0189,4238
0.181,891
0.158,1069
0.0283,4388
-0.0341,7107
-0.115,9945
-0.0581,7588
0.06,3888
0.174,1707
0.277,508
-0.0129,5229
0.0445,3925
0.0147,4814
0.00976,4796
0.0523,3820
-0.277,9033
-0.0498,6541
0.0508,2323
0.0932,1166
-0.0221,6285
0.341,503
0.17,906
-0.246,10144
-0.063,8017
0.0208,4125
-0.0218,5700
0.155,742
0.127,2124
0.114,1586
-0.0677,8232
0.195,2646
0.23,2784
-0.348,10249
0.292,913
0.035,4197
0.00324,5138
-0.0551,6383
0.171,1990
-0.185,7515
-0.0851,6032
0.178,594
-0.0758,7568
0.0039,4965
-0.174,8524
-0.226,9535
0.103,2916
0.00508,4812
-0.0198,6187
-0.0401,5750
0.134,1779
-0.126,6209
0.223,1848
0.28,238
-0.198,5707
0.251,729
0.242,1435
0.0142,4871
0.00949,4777
-0.0551,7737
-0.284,8864
-0.226,10139
-0.227,10186
0.201,2405
-0.167,9313
-0.275,10354
-0.000792,4909
-0.137,9538
-0.444,8401
0.0676,3682
-0.0358,6609
0.218,680
-0.0352,7489
0.295,1965
-0.0293,6371
0.0917,2649
-0.0235,5797
0.176,909
0.0522,3594
-0.141,9266
-0.0618,8077
-0.17,8124
-0.051,6251
-0.0629,7854
-0.00908,5993
-0.206,8343
0.0052,4773
0.0085,4904
0.214,1053
-0.177,9471
-0.0732,7907
-0.163,10024
-0.0932,7042
-0.0221,5901
0.0477,3683
-0.213,10420
0.174,636
0.0705,3225
-0.0856,6469
-0.0327,6513
0.155,1462
0.0208,4381
-0.113,9058
0.572,619
0.0466,3601
-0.12,8514
-0.685,10193
-0.309,10360
0.0123,4066
-0.12,10098
0.00871,4766
0.221,805
0.27,381
-0.298,10472
-0.152,9119
0.203,600
0.245,2053
0.344,275
-0.278,10442
-0.0329,6854
-4.36e-05,4681
-0.0323,6479
0.0676,2378
-0.608,10201
0.0672,3706
0.0908,756
0.0185,4488
-0.0503,5862
-0.163,9682
0.14,2409
-0.107,8187
-0.164,9108
0.00458,4755
-0.00169,4979
-0.0112,5205
-0.261,9645
0.0206,4169
-0.0725,7304
-0.0386,7380
-0.0661,6977
0.109,2068
0.308,468
-0.0982,7305
0.0821,2674
-0.0444,6362
-0.095,8059
-0.000311,4924
0.037,3998
-0.0446,7079
-0.0735,8360
-0.0671,7051
0.0072,4923
0.117,1834
-0.0743,6989
0.0853,2945
-0.0667,7956
0.0926,327
0.133,1870
-0.00364,5167
0.0331,4270
-0.164,8561
0.0563,3493
-0.0767,8778
-0.0433,6126
0.0307,3606
-0.00402,5065
-0.0637,9154
0.284,268
0.0859,1418
-0.0664,7365
-0.0206,6035
-0.175,6387
0.0341,4367
-0.216,10236
0.0907,2920
-0.0239,5478
-0.0381,6168
0.0231,4633
0.245,320
-0.505,10427
0.0276,4374
0.23,1351
0.0528,3737
-0.226,9710
0.0413,4183
0.00689,4915
-0.0384,6932
0.0427,3558
0.545,1027
0.0843,2862
-0.123,9051
-0.297,9981
0.102,761
-0.0609,6601
0.253,364
0.0953,3240
0.0601,4154
0.0195,4239
-0.0119,5681
-0.0448,5991
0.408,489
-0.0494,6202
-0.0795,6584
-0.0518,7135
0.00472,4987
0.0691,2917
0.0432,3695
0.165,1866
-0.00785,5073
0.05,1271
0.038,3293
-0.114,8385
0.0217,4594
-0.161,9157
0.0472,3930
0.146,1494
-0.0134,5576
-0.159,9883
0.032,3721
-0.000952,4996
-0.306,10087
-0.196,9345
-0.178,9341
0.17,2141
-0.116,8316
0.124,2616
0.0166,4425
-0.289,10423
-0.063,7811
-0.213,10412
0.0684,2125
-0.0446,6883
0.142,2223
-0.0649,7419
-0.079,8104
0.012,4835
0.134,888
-0.0874,7182
-0.296,9646
-0.032,7866
-0.0519,7468
0.0227,4614
0.00368,4937
0.0628,2710
0.332,428
-0.111,9015
0.0406,3575
-0.0509,6761
-0.00878,5136
-0.0171,5655
0.0158,4542
-0.0704,7723
0.0211,4097
-0.249,10291
0.46,809
0.0723,2680
-0.0536,5991
-0.13,8093
0.0438,3226
0.0634,1966
-0.0127,5376
0.0456,3906
2.18,389
0.0687,1893
-0.0695,6418
-0.00433,4922
-0.22,8871
0.0204,4274
-0.218,8475
-0.236,10369
0.0313,2988
-0.0756,8057
-0.235,8581
0.0321,3985
0.275,575
-0.0725,7611
-0.00225,5206
-0.488,10177
-0.0512,6006
0.268,525
0.156,558
0.167,1521
-0.161,10111
0.112,2431
0.11,1981
-0.204,7644
-0.104,8429
0.114,3219
1.2,121
0.0297,3268
0.104,981
0.139,1323
-0.0614,6224
0.115,1801
0.184,3144
-0.13,9177
0.0494,3380
0.00199,5076
-0.0441,6350
-0.0273,6274
-0.522,10167
-0.0924,8987
-0.0865,8823
0.0231,4565
-0.0477,6769
-0.0636,6696
-0.183,7436
0.0012,5087
-0.114,9928
-0.0644,6468
0.235,462
-0.163,9270
0.253,1218
0.0117,4015
-0.0759,7441
0.209,663
-0.323,10070
-0.0639,7945
0.0901,2199
0.251,557
-0.00235,5180
0.0178,4484
-0.0813,8156
0.0365,4046
0.414,831
0.137,1175
-0.0437,6934
0.0303,4111
-0.323,9030
-0.0415,6084
-0.142,9333
0.125,1766
-0.0408,6757
0.0618,3692
-0.433,10206
0.136,3235
-0.025,6657
-0.208,9507
0.0487,3170
0.346,136
-0.137,8642
0.0147,4679
0.017,4840
-0.0394,6762
-0.0419,6420
0.142,2367
0.102,2232
-0.0999,7241
0.0253,4370
0.087,1391
-0.177,10079
0.0897,3042
-0.231,9406
0.0514,3985
0.321,1773
0.185,621
-0.00568,5492
0.0306,3684
-0.148,7122
-0.103,8074
0.00776,4832
-0.0235,6282
0.119,1859
-0.16,7847
-0.238,8591
-0.04,6461
0.0351,3754
0.0347,3844
0.156,2310
0.0665,2693
-0.135,8254
0.0117,4634
-0.0542,6795
-0.0184,6273
-0.0616,7645
0.0266,4354
-0.09,7215
-0.0212,5463
0.161,959
0.161,944
-0.15,8944
0.199,2074
0.277,693
0.105,2375
1.31,939
-0.0357,6317
0.163,169
-0.267,10151
0.0989,2430
0.0292,3664
-0.2,8881
-0.028,6583
0.0383,3572
-0.0199,5577
0.0525,2091
-0.124,8468
-0.0326,5865
-0.00741,5877
-0.00859,5502
0.0166,4807
-0.0575,7876
-0.428,10190
0.0114,4609
0.0298,3738
-0.0931,8799
0.208,927
0.195,66
0.144,1701
0.184,184
0.0681,2280
-0.0987,8245
0.303,969
0.104,2429
0.104,2479
0.0178,4689
0.0403,4136
-0.0326,5736
0.356,72
-0.33,9738
0.303,1167
0.149,1628
-0.00561,5010
-0.207,9343
0.474,108
0.0941,2297
0.0454,3383
-0.204,9115
0.361,24
-0.177,9734
-0.205,7513
-0.589,10003
-0.139,7400
0.0406,4259
-0.0521,7558
-0.000902,4857
-0.275,9942
-0.0108,5867
0.137,1669
-0.0275,5480
0.0221,3632
-0.00199,5354
-0.314,10332
-0.107,8192
-0.0323,5717
-0.147,7180
-0.21,10238
0.0585,3349
-0.405,10374
0.0485,4254
-0.26,8822
0.0846,2791
0.326,51
0.0137,4503
-0.282,10305
-0.104,8006
-0.531,8323
0.0327,4048
-0.108,8253
0.207,1195
-0.0619,7382
0.0769,2840
0.0816,2171
-0.0427,6521
-0.168,10306
0.068,3308
0.107,2689
-0.112,7672
-0.0232,5817
0.378,300
0.0517,3443
0.118,2099
0.0793,2788
0.165,882
-0.267,8732
-0.0249,5831
0.048,2528
-0.125,9623
-0.0343,6194
-0.126,9202
0.0366,4281
-0.0454,6880
0.271,330
-0.00121,5227
-0.0951,7798
0.159,2098
0.373,1462
-0.257,9986
-0.0783,8320
-0.0616,7012
-0.043,7186
-0.123,8386
-0.00111,5278
-0.0482,6786
-0.116,9578
-0.0825,7562
-0.323,9368
0.605,1685
0.273,2497
0.0568,3954
0.0455,4476
0.0547,3253
-0.134,9331
-0.00797,5189
-0.0786,6673
-0.338,7818
0.252,678
-0.0128,5897
-0.164,10170
0.0722,2728
-0.102,9546
0.553,259
-0.0659,8107
-0.0329,6791
-0.0356,4954
0.226,1125
-0.0526,5919
0.288,2227
0.0729,2828
-0.0211,5853
0.0169,4870
-0.124,8683
-0.168,9248
-0.159,9940
-0.119,9398
-0.0362,6190
-0.0126,5399
0.199,417
-0.0339,6326
-0.72,8252
-0.083,7394
-0.0454,6672
-0.18,10276
-0.0675,8631
-0.165,8802
0.0906,2441
-0.0274,5613
0.156,1759
0.15,1677
-0.0938,8478
-0.276,10041
0.0504,2806
0.125,1017
0.16,480
0.252,160
0.102,3263
-0.238,10413
0.126,2091
0.00104,5192
-0.152,9766
-0.104,7104
0.0572,2428
0.0475,3099
-0.0611,6115
0.0259,3244
0.0105,4629
-0.0526,7198
0.134,3060
0.303,978
-0.205,9036
-0.036,6891
-0.121,8624
-0.0251,5610
-0.0157,5351
-0.0845,6186
-0.0591,6489
-0.0423,6239
0.175,786
-0.181,6403
-0.017,5768
0.0371,4224
-0.341,9689
-0.06,7833
0.0905,2306
-0.0758,6997
0.164,2514
0.171,2141
0.0757,3359
-0.117,8924
0.0477,3540
0.0028,4751
0.00284,5108
-0.0403,5875
0.238,323
-0.142,9769
-0.0103,5509
0.0462,3530
0.13,2491
0.0225,4340
-0.00891,5487
0.0717,2526
0.0163,4428
-0.0384,6030
-0.031,5532
-1.42,10220
-0.116,7273
-0.126,9205
-0.0549,7495
-0.15,8871
-0.172,9797
0.152,3035
-0.0236,6647
-0.0818,8922
0.232,46
0.035,4259
0.101,2402
0.213,2170
0.107,3404
0.00932,4509
0.427,587
-0.069,6039
-0.0365,6093
0.0467,3968
0.0881,2409
-0.139,8277
0.0754,1882
0.0352,3773
-0.0913,6335
-0.0301,6821
-0.225,9672
-0.0865,7910
0.191,522
0.16,2932
0.0132,4580
-0.0976,5853
0.0113,4729
-0.0374,6341
-0.0188,5652
0.0415,4114
-0.0151,5369
-0.357,9513
0.114,1530
0.0614,2277
-0.00354,4911
-0.0112,5604
0.187,1328
-0.0323,5663
-0.0838,7835
0.0316,4199
0.00104,5437
-0.0155,5261
-0.0798,7393
0.0811,3600
0.111,3171
0.0322,4006
0.375,69
0.068,2921
0.233,865
-0.0484,6864
-0.144,8663
-0.139,9830
0.0654,2289
-0.0603,6497
0.0434,3888
-0.202,9564
0.192,1633
-0.0462,6966
0.0809,1529
-0.0033,5121
0.155,294
0.151,3171
0.0855,3860
-0.166,9263
0.0455,3729
-0.00287,5915
-0.0766,6750
-0.25,10062
-0.0179,5706
1.05,942
0.159,868
0.0606,2847
-0.00164,5179
0.113,2542
-0.2,9051
0.202,1982
-0.0721,8133
-0.32,10475
-0.0257,6148
-0.185,7194
-0.083,7524
-0.00317,4797
0.101,2113
-0.0107,5371
0.00177,5007
-0.123,8876
0.185,608
0.0895,2998
0.106,1743
0.0617,3119
-0.194,8387
-0.0775,6963
0.305,1193
-0.109,5606
-0.0133,5431
0.0853,2469
-0.183,10041
0.114,2573
0.1,3722
-0.0452,6700
-0.0299,6204
-0.105,8421
0.0249,4599
-0.121,9275
-0.0787,6620
0.0893,1976
0.223,1675
-0.00865,5490
0.0398,3864
-0.0847,7272
-0.12,8552
0.0737,3301
0.0168,4388
-0.0824,8529
-0.0723,7711
0.0963,2222
0.69,468
-0.0688,7281
0.16,644
-0.0489,7234
-0.244,10242
-0.739,9722
-0.208,6980
-0.101,6918
0.0532,3251
-0.06,6555
0.0304,4704
0.0208,4324
0.00458,4861
-0.0591,6284
0.00514,4742
-0.111,8190
-0.0883,7563
-0.00841,5405
-0.182,9624
0.148,2030
-0.192,8567
-0.0488,7461
0.0257,4477
-0.0882,7545
-0.134,7992
-0.134,7706
-0.133,8959
-0.0246,6190
-0.193,9433
-0.175,7235
-0.0561,7898
-0.0471,5734
-0.106,8708
0.044,1885
0.124,960
-0.183,6364
0.184,2622
0.129,1160
0.0555,3221
0.093,1291
-0.203,9203
0.287,667
0.122,3076
0.0954,3530
0.0605,2654
0.187,1663
-0.0525,6309
0.042,4090
-0.103,7849
0.00404,4961
0.106,1823
-0.191,9664
0.151,2180
-0.0834,7945
-0.302,10043
0.0637,3725
0.114,1840
-0.0167,5759
0.146,1300
0.0671,2609
0.106,1229
-0.0464,6567
0.0849,2955
-0.201,10037
-0.0873,8146
-0.0529,7327
0.0238,4138
0.176,1923
-0.0417,7271
0.0777,639
-0.0704,6697
-0.198,9808
0.319,1777
-0.0623,7145
-0.195,10142
0.0193,4490
0.075,3281
0.0255,4410
0.0796,2493
-0.0915,10149
-0.161,9553
-0.156,8952
0.149,637
0.253,194
0.0609,3625
0.281,587
-0.0596,7380
0.0566,3306
0.311,319
0.152,1299
-0.193,8992
-0.0392,5691
-8.73e-05,5057
0.0137,4759
-0.243,9213
0.0711,2150
0.411,729
0.0341,3592
0.105,2702
0.105,1966
-0.0176,5810
-0.135,7795
0.102,3333
-0.578,10048
0.0736,3199
0.0716,3486
-0.137,7603
0.00278,4931
-0.186,7437
-0.0145,5058
-0.0142,6004
-0.0256,6476
-0.0667,8033
-0.173,9874
0.132,607
0.0826,2921
-0.0572,7047
0.2,337
0.107,2497
0.216,1543
0.026,4401
-0.0834,7021
0.00102,5017
0.0295,4013
0.00906,4817
0.0758,3274
0.0445,4272
-0.00613,5023
-0.0307,6398
0.268,1613
-0.106,6836
-0.464,9142
0.285,2705
0.00673,4773
-0.218,9737
-0.124,8382
0.0338,4178
-0.19,7771
0.0831,2448
-0.0636,7957
-0.114,8624
0.283,1641
0.12,2307
0.276,345
-0.0388,6054
-0.168,9687
0.0855,1602
-0.213,9007
0.0942,2363
-0.119,7336
-0.364,9831
-0.0764,7812
0.0302,3827
0.00487,4960
-0.115,7479
0.0263,4378
-0.269,7215
-0.167,9754
0.0177,3851
0.167,2515
-0.0757,6498
0.588,285
0.0626,2766
-0.0904,8861
-0.0667,6924
0.0704,2206
0.0745,3418
0.0371,4191
0.155,1980
-0.0907,9741
0.0586,2644
-0.000544,4909
-0.0111,5223
-0.00424,5411
-0.137,7842
0.0312,3855
-0.133,9595
0.0544,3226
-0.0663,6665
0.232,1124
-0.0111,5314
-0.0838,8369
0.0665,2374
0.00471,4881
-0.392,10134
-0.0772,5775
-0.0805,6128
0.0204,4205
0.0767,2075
0.18,799
0.00299,4899
-0.00343,4892
-0.305,10241
-0.0169,5593
-0.101,8242
0.0197,4440
-0.134,8806
-0.0707,7468
0.0587,3381
-0.0315,6478
-0.0236,6389
0.572,140
-0.173,8020
-0.267,9096
0.178,1283
-0.14,9612
-0.00919,5796
0.0244,4524
-0.106,7724
0.0162,4318
0.127,2238
0.0202,4168
0.00776,4780
0.0404,3635
-0.285,9800
-0.0435,7252
-0.0925,7361
0.289,23
0.0702,2879
-0.0939,7797
0.0798,2190
0.0421,3916
-0.203,5913
0.0745,1969
0.0371,3435
-0.0788,7112
-0.0644,6725
-0.109,6079
0.69,1175
0.146,1919
0.0117,4626
-0.0971,8028
0.0627,3124
0.012,4451
-0.0362,4935
0.165,2085
-0.0554,7764
0.0438,3812
-0.271,10047
0.0525,4070
-0.226,10292
-0.0637,7317
-0.0399,5460
0.0595,3559
-0.151,7334
-0.0286,5115
-0.086,6185
0.0144,4344
-0.0612,6577
0.114,1784
-0.191,9488
0.0629,2878
-0.0467,6528
-0.0516,8800
-0.119,9270
0.146,1914
-0.37,10287
0.101,2356
0.443,670
0.0281,3780
-0.0332,5951
0.0115,4504
-0.114,7373
0.154,2728
-0.113,8154
0.0178,4581
0.0305,4403
-0.0211,5217
0.14,1699
-0.222,9547
-0.0976,7565
-0.234,10262
-0.392,10460
0.0474,3411
0.0264,4259
-0.451,10339
-0.379,9647
-0.00961,5523
-0.0863,7365
-0.0174,5249
0.0717,3797
-0.377,9809
-0.0559,7657
-0.0508,7150
0.146,1836
-0.0287,5765
-0.175,9513
0.756,877
0.0523,3288
-0.113,8584
0.216,761
-0.0626,6371
0.153,317
0.0558,3143
0.0244,4292
-0.187,9400
-0.176,9322
0.126,1350
0.0157,4497
0.0503,3899
0.0108,4698
0.0101,4608
-0.037,6756
-0.201,9268
-0.0851,6924
0.244,621
0.087,3415
0.0119,4416
-0.0309,6260
-0.0999,8239
0.0829,2962
-0.169,8893
0.0769,3494
-0.101,8170
-0.0734,7610
-0.121,9571
-0.168,8880
0.312,493
-0.175,8983
-0.0641,8188
-0.0781,8988
0.13,1800
0.289,532
-0.0955,8502
0.0025,5016
0.0692,2004
0.158,800
-0.144,8988
-0.0549,5812
0.506,390
-0.204,8754
0.079,1626
-0.0613,8480
-0.00959,5288
0.156,842
-0.156,6914
-0.0505,6091
-0.152,9376
-0.0311,7113
-0.0132,5831
-0.135,9381
0.019,3739
-0.0211,5740
0.0404,3578
-0.122,7878
0.0321,4192
-0.258,9777
0.229,794
0.236,1378
0.0392,3384
-0.00946,5443
0.0543,3556
-0.054,7053
-0.24,10017
-0.183,9083
-0.175,9713
-0.0135,5617
0.0932,3287
-0.112,6241
-0.545,8452
-0.0463,5013
-0.0732,8648
0.101,2695
0.33,268
0.0805,3297
0.216,2218
-0.0288,5102
0.147,148
-0.137,9961
-0.135,7299
-0.235,9766
-0.399,8615
-0.0615,5869
-0.0419,6688
0.0883,3793
0.0731,3102
-0.11,8839
-0.0748,7910
-0.275,9361
-0.132,8770
-0.17,9855
0.0124,4710
0.171,2443
-0.0175,5534
-0.301,8694
-0.138,8342
0.0995,2608
0.0935,2789
0.136,1241
-0.166,8933
0.0217,4478
0.0444,3182
0.0452,1683
-0.404,9071
0.145,1736
0.0719,3108
0.0431,2905
-0.085,7060
-0.0927,9281
0.159,1581
-0.245,8074
0.0995,2666
0.475,153
0.0369,3854
-0.0494,6109
0.102,3315
-0.23,9648
-0.0823,6438
0.0613,3706
-0.624,10469
0.0697,2037
0.131,1774
0.124,1385
-0.0907,7293
-0.117,7972
-0.178,9962
-0.0279,7245
0.00821,5005
-0.107,8616
-0.255,8002
-0.00758,5459
-0.125,8997
-0.0699,6862
0.0906,3100
0.12,2328
-0.0794,6543
0.404,2368
0.0679,1762
0.0425,4040
0.108,1444
-0.154,6700
0.0702,3529
-0.0421,6406
0.0413,3206
-0.132,9780
0.32,895
-0.148,8447
0.00585,4742
0.126,2837
0.0306,3709
0.0807,2266
-0.242,8727
-0.138,8549
0.18,2482
-0.091,7408
-0.194,9820
-0.0129,5533
-0.0481,6828
0.192,1387
-0.283,9849
-0.0827,8522
0.0981,2359
-0.105,8290
-0.0405,7149
-0.116,8334
0.00113,5071
0.157,2441
0.0223,3931
0.0881,1585
-0.106,8149
0.0415,3610
-0.599,10449
0.00237,5125
-0.132,8649
0.0429,4055
-0.141,7492
-0.0402,6464
-0.107,8195
-0.127,7291
-0.119,9641
0.0654,3606
0.0614,3355
-0.0495,6382
-0.243,7774
-0.429,10081
0.075,1134
-0.0114,5729
0.149,2505
0.205,97
-0.278,6407
-0.3,8443
0.118,911
0.146,898
0.0803,2697
-0.321,10277
-0.209,7766
-0.0458,5783
-0.00533,5165
-0.137,9792
-0.0608,6257
0.175,2039
0.628,157
-0.217,8248
-0.222,9522
-0.0343,6562
0.358,319
0.00417,5027
0.0151,4748
0.148,2470
0.123,405
-0.0609,7076
0.582,705
-0.00191,4988
0.416,670
0.0548,3363
-0.0992,10007
0.0753,1986
-0.458,10369
-0.0785,7067
-0.333,10059
-0.213,9323
0.0938,3005
-0.0203,6138
0.116,3105
0.0933,2571
0.167,919
-0.0367,6424
0.183,952
-0.0442,8254
-0.185,9874
-0.148,9751
0.00428,4958
-0.236,10027
-0.0284,6562
0.373,437
-0.00818,6324
0.141,984
-0.108,8170
0.141,2077
0.147,1248
0.146,659
-0.00491,5421
0.152,1521
0.0828,2499
-0.0743,6631
0.273,575
0.0294,4225
0.146,1168
0.138,2534
0.0444,3738
-0.15,7388
0.524,368
0.023,3786
-0.0194,6562
-0.9,10283
-0.0155,5168
-0.491,8452
0.173,2284
0.0972,2321
0.0161,4243
0.0193,4609
0.165,1039
0.022,4331
-0.152,8284
-0.0227,6281
-0.142,9994
-0.0209,5480
0.0539,2894
0.00263,4822
0.384,1037
-0.0069,5419
-0.0116,5432
0.00788,4875
-0.07,7303
-0.074,6429
0.142,2889
0.171,707
0.00852,4753
-0.00947,5524
0.0052,4958
-0.564,10401
-0.0444,6536
0.0714,2839
0.0595,2624
0.526,1442
0.585,366
0.0277,3785
-0.0238,6604
0.179,2057
-0.024,6195
-0.326,10440
-0.0258,5738
0.00511,4861
-0.0456,7332
0.185,1381
0.203,2342
0.0792,2654
-0.257,9465
0.0784,3106
-0.294,10277
0.111,1458
-0.083,8285
-0.285,10147
-0.0571,7254
-0.149,8133
0.0257,4359
0.0866,2248
-0.102,7418
-0.0436,6791
-0.024,5689
0.352,56
0.128,829
-0.106,8244
0.156,1478
0.158,1798
0.171,1724
0.0348,3908
-0.115,9186
-0.0491,7307
-0.054,6601
-0.0955,7824
0.144,2091
0.000324,4843
-0.124,8230
-0.0942,9414
-0.155,7403
-0.119,8281
0.126,2184
0.0425,4341
0.219,392
0.23,739
-0.361,10313
0.0455,4274
0.0752,3440
0.226,164
0.105,2227
0.126,2870
0.0438,4109
-0.118,8457
-0.267,8403
-0.609,10402
0.0537,3457
-0.0555,8155
-0.16,9991
0.0407,3768
-0.0988,8429
-0.0965,8351
0.0657,2441
0.0928,589
0.0666,3413
0.0188,4506
0.0568,2599
-0.114,8100
0.0788,1771
-0.0646,6672
-0.148,8758
-0.0211,5391
0.0182,4548
0.0123,4272
-0.311,10468
-0.0179,5599
-0.141,9384
0.298,172
0.0149,4689
-0.0555,6677
0.0868,1843
-0.267,9597
0.6,1592
-0.122,8318
0.696,406
0.082,3000
0.0578,2120
0.0762,3001
0.238,3294
-0.0815,6224
0.0839,2045
0.131,2194
0.0785,2062
0.0251,3612
0.0281,4082
-0.0232,6275
-0.255,9828
-0.252,8536
-0.0553,7499
0.132,1784
0.193,1938
0.0904,2519
-0.125,8385
-0.108,7546
-0.0317,6204
0.399,29
-0.0975,9085
0.155,2818
0.0417,3470
-0.0264,5707
-0.0112,5571
-0.054,7350
-0.13,8997
-0.0965,8943
-0.0418,6022
0.048,3724
-0.193,9306
0.0349,3624
-0.0323,5876
0.0269,4117
0.085,2428
-0.114,8352
-0.206,9918
0.121,1801
0.291,502
0.112,1840
0.248,813
-0.123,7086
0.0124,4567
-0.129,8688
-0.0298,5956
-0.0714,7784
-0.242,7648
-0.101,6592
0.00687,4722
-0.0207,5324
0.15,1746
-0.0688,7399
-0.294,10191
-0.149,9056
0.0477,2883
0.0234,4552
-0.318,10393
0.0661,3769
0.0111,4758
-0.0173,5938
-0.101,9110
0.026,4302
0.12,2294
-0.0813,5453
0.17,1529
0.0747,2850
-0.0634,6911
1.17,1341
0.354,1484
0.272,2626
0.278,640
-0.676,9715
0.0511,4154
-0.175,9170
0.0443,4198
-0.103,7675
-0.0919,9028
-0.0846,8425
0.0893,3259
-0.183,9745
0.0167,4267
0.16,1905
0.0753,2752
0.089,1013
0.34,329
0.0837,3018
0.161,2680
0.0599,3874
-0.031,6256
0.165,811
-0.305,10257
0.0748,2930
-0.0394,5828
-0.0129,5334
0.131,966
0.0185,4541
0.0371,3772
-0.178,9750
0.121,1739
0.111,2733
-0.00955,5331
0.104,2300
-0.104,7663
0.0996,2208
0.127,1859
0.0783,3065
-0.0528,6225
0.0249,3940
-0.185,4512
0.244,1505
-0.158,8395
-0.142,8294
-0.144,9963
0.0559,3459
0.029,3759
0.0559,3603
0.0342,4126
-0.049,6121
0.154,1103
0.0239,3008
-0.178,9495
0.433,2276
-0.168,9840
-0.096,8020
0.0821,2132
-0.0397,6903
0.0411,4206
-0.0471,7791
-0.00684,5398
-0.17,8388
-0.0531,6614
0.0424,2553
0.0121,4452
-0.0629,5264
0.247,968
0.123,3325
0.452,453
-0.0895,7648
0.216,810
-0.108,6768
-0.178,8439
0.178,1174
0.262,1149
0.0481,3229
0.889,988
-0.255,5966
0.341,342
-0.208,9469
-0.016,5305
-0.0503,8620
-0.174,10106
0.0632,1717
-0.0832,7529
-0.438,10464
-0.429,10370
0.0988,3083
-0.4,10369
-0.111,8506
-0.203,5731
0.0724,3427
0.111,2439
-0.274,10049
-0.0814,7618
-0.0854,7089
-0.107,8275
0.0336,4088
0.39,418
-0.0301,5836
-0.108,9502
0.392,99
-0.177,9010
0.177,925
-0.138,7021
-0.0733,6179
-0.0758,9177
-0.129,9544
0.0816,2838
0.0263,4185
-0.217,8780
0.428,115
-0.0295,6751
-0.135,9451
-0.0482,6408
0.00856,4813
0.21,1229
0.28,1362
-0.00115,5152
-0.0335,6526
0.203,683
0.0724,3279
-0.219,7420
0.707,16
0.0397,3939
0.0599,2488
0.0585,3525
0.081,3153
0.0288,4375
0.182,1264
-0.154,9724
-0.0538,6571
-0.29,10419
-0.0569,6316
-0.264,8354
-0.0553,6868
0.0628,2900
0.124,1854
0.0365,4295
0.0958,2603
0.0483,2881
-0.0582,6821
-0.0277,6356
-0.122,10322
-0.215,9613
0.0321,4043
-0.186,9138
0.158,2250
0.0832,3020
-0.048,6785
-0.123,8208
-0.208,8350
-0.177,8477
-0.667,10417
-0.221,8034
-0.0975,7263
0.24,1927
0.393,2117
-0.215,8918
0.11,2887
0.000996,4671
-0.187,9341
0.0519,3759
-0.034,5257
-0.00351,5241
0.112,1421
-0.019,5652
0.108,3229
-0.0294,6173
0.0218,4311
-0.141,8140
-0.0465,6696
-0.0259,6532
0.192,947
0.0615,2699
0.282,2819
-0.116,7373
-0.00231,4761
0.0938,1815
-0.0297,5635
0.0544,4199
-0.0116,5708
-0.00605,5218
0.153,688
-0.186,8263
0.00423,4933
0.115,2106
-0.0718,6040
-0.129,6910
-0.281,10316
0.233,745
0.0114,4529
0.183,878
-0.0974,8740
0.0853,2061
0.0312,3812
-0.0317,6527
-0.179,10165
-0.0464,6659
0.251,888
0.123,2949
-0.225,6327
0.0288,4050
-0.0691,6691
0.0484,2760
-0.139,7976
-0.0647,6387
0.00772,4777
0.0269,4022
-0.3,9469
0.0539,2888
0.265,534
0.142,2444
-0.0849,8744
-0.316,10474
0.166,1041
-0.12,7773
-0.133,7290
0.232,1097
-0.0889,9309
-0.178,9537
0.0235,2677
-0.269,5287
-0.79,9604
0.0752,3413
0.231,2465
-0.167,7290
-0.0203,5531
0.079,2290
-0.053,6144
-0.0591,6222
0.0305,3749
0.0459,3795
-0.0267,5361
-0.101,5442
0.0691,3887
0.522,2358
-0.798,9848
-0.148,6781
0.333,1001
0.0779,2486
-0.164,7087
0.135,2141
0.102,997
-0.0149,5609
-0.24,8954
-0.0588,7168
0.0293,4103
0.0652,4105
-0.00474,5525
-0.145,9505
0.0523,3703
0.475,362
0.106,2747
-0.167,8501
-0.0503,6525
-0.0133,5522
-0.174,7105
-0.453,10010
0.481,1049
-0.16,9134
0.179,1061
0.106,1445
0.104,2920
0.11,2127
0.0656,3154
0.173,1405
0.0258,3817
-0.101,9028
-0.108,3517
-0.0529,6873
0.00239,5045
0.136,2092
0.176,737
-0.0157,5723
-0.0225,6384
-0.184,10115
0.000256,4893
0.0143,4299
-0.0504,6668
-0.0472,7332
0.0827,1935
0.276,2146
0.063,4060
0.216,646
-0.0376,6044
-0.0681,7221
-0.103,8596
0.363,352
-0.0625,6999
-0.0403,6027
-0.0844,8912
-0.0436,7084
-0.143,9005
0.0619,3602
0.0106,4697
0.221,3046
-0.104,7834
-0.263,10377
0.0228,4470
0.306,869
0.269,1052
-0.378,9897
0.0334,4036
-0.0171,5733
0.00314,5246
-0.101,7628
0.343,790
-0.0214,4983
0.22,422
0.00676,4742
0.00338,4861
0.135,2227
-0.036,7509
-0.0267,5299
0.0915,1067
-0.0715,7281
0.0868,3274
-0.0457,6458
0.344,516
-0.147,8433
-0.14,8022
-0.0513,7115
-0.173,9322
0.0126,4386
-0.115,5995
-0.0468,6416
0.0273,3848
-0.0681,7950
0.292,333
-0.000892,5072
0.195,2962
0.0675,3429
0.0258,3996
0.0165,4079
-0.064,7618
0.0323,4299
-0.804,10098
0.0662,2999
-0.0339,5734
0.0406,2977
-0.0204,5201
1.58,483
0.438,1605
-0.0199,5918
0.24,2560
9.87e-05,4667
0.182,1303
-0.16,6999
-0.0374,6312
0.197,234
0.0463,3328
0.0334,4305
-0.111,7511
0.0581,4106
-0.222,10141
0.0837,2448
-0.0892,9014
0.144,1137
0.219,764
0.0213,4249
-0.187,9761
-0.0472,6504
-0.242,10098
-0.00624,4905
0.176,910
-0.15,5436
-0.0327,5399
0.252,570
-0.337,10408
-0.222,10152
0.0469,3543
-0.131,8298
-0.0282,5736
0.0643,3323
-0.33,9989
-0.0265,5603
-0.0354,6471
0.121,2793
-0.0867,7120
-0.0621,5803
-0.279,9991
-0.157,6872
-0.00911,5174
3.56,203
-0.0602,7165
0.408,22
-0.0922,8287
-0.0952,8114
0.244,1141
-0.177,8275
0.0426,4140
-0.252,9852
-0.136,9240
-0.18,7692
-0.0154,5540
-0.217,9792
0.175,988
0.0831,2048
-0.0691,6862
-0.0938,8540
0.0528,3399
0.0335,4457
0.175,1121
0.167,406
-0.133,9836
0.0795,3045
-0.207,8618
-0.0232,5690
0.363,310
-0.0528,8950
-0.132,7902
-0.194,9343
0.0594,3808
0.0208,4357
-0.203,9719
-0.103,7563
-0.0486,6876
0.7,97
0.12,2954
0.391,566
0.152,1985
-0.00909,5702
0.0651,2512
-0.0945,6362
-0.123,7742
0.39,783
-0.0493,5836
-0.318,8564
-0.0876,8817
0.168,1302
0.0937,2387
0.224,3041
0.216,2850
-0.0326,6867
0.0757,2217
-0.129,8622
0.105,1974
0.0358,3972
-0.37,10200
0.000667,5114
-0.0143,6035
-0.00374,4921
-0.191,9318
-0.268,6283
-0.111,7762
-0.214,9155
-0.0907,8355
-0.0183,5757
0.0442,3935
-0.0976,6687
-0.0272,5754
0.0107,4554
0.106,1556
-0.369,8862
-0.238,7982
0.00151,4616
0.0883,2387
0.129,1275
0.0994,3318
0.00277,4843
0.0467,3458
0.138,2427
-0.145,8121
-0.0405,6031
-0.0665,8724
-0.0246,5430
-0.207,10028
2.34e-05,5059
0.155,2325
0.116,777
0.31,457
0.135,1703
-0.0526,6272
0.19,809
0.206,865
0.113,1883
-0.243,9684
0.177,1307
-0.0403,6426
0.0748,3541
-0.0682,8826
0.101,2287
0.0284,4126
-0.0531,6476
0.158,1769
0.475,345
0.12,1774
0.115,1150
-0.0721,7967
0.212,1149
0.163,2196
-0.156,8493
-0.0134,5626
0.0664,2785
-0.00977,5513
-0.338,10260
-0.0426,6527
-0.0175,5914
-0.022,5799
0.199,667
0.167,524
0.0719,3248
0.0932,3054
0.304,1105
0.0704,3436
0.194,995
-0.104,9232
0.434,453
-0.354,10157
-0.0124,5213
0.0668,3680
0.0197,4249
-0.0127,5819
0.0957,2974
0.159,2318
0.371,454
0.0864,2896
-0.0038,5231
0.0266,4502
-0.175,9214
0.0472,3982
-0.0239,6142
0.0545,3777
0.0687,2450
0.00158,5137
0.0509,3472
-0.157,8776
-0.112,7112
0.159,2778
0.281,1336
0.175,578
-0.228,9070
0.164,2125
0.172,1899
-0.0173,5789
-0.0163,5678
-0.0787,8692
-0.0604,6420
0.0449,4150
0.0206,4359
0.123,2736
-0.00721,5376
-0.0844,9181
-0.00504,5170
-0.00955,5527
-0.0385,6305
-0.0573,6612
0.0664,2982
0.0217,3803
-0.0233,5856
0.00887,4711
0.0286,4476
-0.118,9002
0.104,1670
0.0556,2011
0.148,1728
-0.258,10454
-0.0553,6641
-0.131,4905
-0.0157,5928
-0.0131,5506
0.203,253
0.315,253
0.381,539
0.0436,3572
0.136,1028
-0.136,8480
-0.0724,7172
-0.303,8086
-0.151,7867
0.00722,4919
0.0529,3260
0.099,2761
0.0568,3937
-0.242,9168
0.128,1387
0.584,915
0.212,827
-0.103,8860
-0.0866,6929
-0.038,6242
-0.122,8867
0.0711,3212
0.0699,1571
0.0752,2617
-0.054,6428
0.065,2793
-0.167,8257
-0.328,9474
0.121,1344
0.0567,2824
-0.196,8109
0.199,1126
-0.0473,5978
0.0227,4729
0.0204,4620
-0.00637,5397
0.025,4599
-0.194,8218
-0.0106,5371
0.0773,2717
-0.0406,6409
0.0671,2790
-0.0527,6609
0.0478,4149
-0.0443,6066
0.0995,2141
0.0384,3386
-0.205,7946
0.0779,2136
0.193,1379
-0.435,8638
0.0199,3672
0.0535,3696
-0.0961,8730
0.11,2366
-0.035,6413
-0.0869,7038
0.0675,2892
-0.0504,6998
0.189,1830
-0.37,10136
-0.131,7880
0.149,1981
-0.347,10415
-0.17,9317
0.184,1472
-0.147,9264
0.212,1068
-0.0434,6223
0.148,405
-0.0502,7847
-0.157,8064
-0.00123,4984
0.141,1997
0.362,1334
-0.0216,6239
0.116,721
0.188,1550
-0.00116,5164
-0.322,10047
-0.00564,4761
0.0158,4199
0.171,731
-0.0852,9081
0.457,128
0.0919,3046
-0.121,9528
0.0334,4207
0.117,1642
0.156,1923
-0.0864,8714
0.159,3348
0.0361,3927
-0.0886,7971
0.02,4234
0.0299,4166
-0.0273,6192
-0.048,6221
-0.295,9898
-0.0625,7743
0.131,2341
-0.0437,5694
0.131,2344
-0.417,9902
-0.0912,5462
-0.116,8684
0.119,1653
-0.26,7782
0.128,2905
0.137,2550
0.11,2511
-0.0956,8546
-0.0761,7807
-0.0322,6051
0.04,3209
0.0354,2747
-0.253,10253
0.0848,1679
-0.171,10120
-0.641,8299
-0.505,6900
-0.393,8721
-0.423,8241
0.561,1675
0.0581,2661
-0.387,9429
-0.207,9461
-0.13,8931
0.0672,3382
-0.0556,7027
-0.0664,7446
-0.0999,8148
-0.189,8998
-0.0064,5212
-0.0525,3764
-0.0647,7471
0.00831,4484
0.0991,2273
-0.133,8661
-0.168,8960
0.144,2246
0.0343,3864
-0.0602,9587
0.411,1569
-0.141,8252
0.479,1126
0.101,2975
-0.0573,6928
-0.0189,6405
-0.0929,6522
-0.332,10473
0.0227,4204
-0.219,10216
0.0398,3079
0.0392,476
0.07,2664
0.0107,4676
-0.176,8817
0.0762,2107
-0.0121,5652
-0.00277,5253
0.325,710
-0.151,8092
-0.162,10013
0.122,2140
0.079,2572
-0.01,5026
-0.0157,4977
-0.405,10286
-0.165,7967
0.256,149
0.0064,4988
0.0817,1537
0.205,1516
-0.131,7933
-0.347,9647
-0.362,7456
-0.0414,6780
0.00732,4656
-0.407,10441
-0.22,8431
0.0158,4687
0.441,1268
-0.122,8220
-0.0854,8968
0.155,1617
-0.0343,5443
-0.0313,6189
-0.133,7564
0.233,522
0.249,590
-0.0642,7913
-0.103,7387
-0.157,9208
-0.0571,6358
0.0608,2702
-0.101,8622
-0.106,7911
-0.096,7518
-0.0929,6843
0.0997,3563
0.00321,4880
0.0881,2842
0.0796,2331
-0.008,5254
-0.227,9481
-0.113,7205
-0.339,10455
-0.213,8384
-0.0963,7421
-0.296,9687
0.00942,4633
-0.00648,4850
0.00325,4949
0.048,1864
-0.145,7182
0.0473,2531
0.245,1767
0.0767,3696
-0.238,9843
-0.157,8623
-0.133,9598
-0.133,8127
-0.134,7186
0.0182,4511
0.137,1869
-0.0123,6127
0.0416,3776
0.431,224
0.196,1347
0.182,1446
0.0408,3560
-0.145,9179
-0.117,6844
0.355,517
-0.0576,8103
-0.168,8817
-0.148,9632
-0.0788,8581
0.0347,3894
0.174,1385
0.233,559
-0.214,8932
0.0487,3713
-0.102,9647
-1.33,10318
-0.189,7779
0.0227,4375
-0.328,9016
0.0125,4626
0.25,407
0.354,578
0.195,483
-0.255,9407
-0.0951,8323
-0.198,9443
-0.0957,8276
-0.0113,5423
0.11,877
0.0417,4204
-0.259,9757
-0.172,10123
-0.0877,8005
-0.108,7755
-0.0579,7499
0.123,2223
0.142,793
-0.0282,5480
-0.00748,5312
0.109,1504
0.0147,4603
0.142,1724
-0.0432,5904
0.228,1383
0.0427,4060
-0.0429,6230
0.133,3422
-0.00235,5134
0.17,2088
-0.085,7398
-0.00665,5246
-0.214,10151
0.328,905
-0.999,9654
-0.0719,7216
-0.00887,5481
-0.0715,7385
0.121,3294
0.45,1375
0.182,1759
0.127,2342
0.709,70
0.0261,4201
-0.063,6083
-0.134,8091
0.0204,3781
-0.0534,7887
0.0939,2359
-0.185,7800
0.0376,4333
0.327,67
0.0193,3697
0.0325,3200
-0.0249,5792
0.0556,2603
-0.218,10342
-0.235,9826
-0.236,10068
-0.0439,7281
0.192,2632
-0.0193,5730
0.183,277
-0.295,9375
-0.077,7165
-0.0136,5844
-0.295,8933
-0.118,8105
0.0823,3232
0.0708,3069
-0.373,10467
0.371,227
0.398,394
0.0303,3732
-0.0688,7486
-0.0867,6195
-0.243,10449
-0.00825,5535
-0.292,9951
-0.207,8690
0.159,2636
0.112,3002
0.0169,4442
0.0614,3549
0.0365,4083
-0.0919,7204
0.0183,4602
0.00724,4571
0.168,692
-0.111,9681
0.046,2902
-0.0652,6441
-0.00309,4984
0.00591,4900
0.335,90
0.0283,3340
0.289,158
0.144,2520
-0.141,8096
0.0366,4079
0.0407,3534
-0.236,10208
0.41,38
0.0234,4186
-0.165,8427
0.124,1837
-0.223,10412
0.0528,3160
-0.00754,5176
0.097,2118
0.095,3133
-0.0161,5447
0.0775,2888
0.0905,2394
-0.02,5426
-0.0569,7770
-0.0372,6566
-0.0444,7563
0.0645,3379
-0.0948,8479
-0.0475,6362
0.00811,4830
-0.107,8858
0.135,2174
0.0802,1854
0.0446,3830
0.103,1798
0.0476,3034
0.101,2402
-0.00275,4958
-0.343,10466
0.0783,2650
-0.0756,7151
0.0818,3001
-0.114,8230
-0.101,8081
-0.0851,6913
0.0759,3170
0.345,340
-0.084,6893
0.059,3562
0.134,4085
0.144,705
-0.0441,7071
0.0682,2697
0.441,267
-0.0444,6548
-0.211,8594
-0.153,10105
-0.0577,7568
0.00337,4877
0.119,2455
-0.0766,5643
0.0358,4262
-0.134,9885
-0.0012,5228
-0.208,9681
-0.0313,6206
0.15,2326
-0.0437,6136
0.283,418
-0.0608,8114
0.0693,2753
0.0981,2663
-0.112,7772
-0.192,10185
0.031,4211
0.131,2298
0.0345,4227
-0.22,8754
-0.051,4985
-0.212,7563
0.0217,4272
-0.0531,8363
-0.131,7988
-0.435,10051
0.0165,4410
0.227,1781
-0.0328,6049
0.0039,4896
-0.0346,5847
-0.0585,7105
-0.0925,7552
-0.00582,4999
0.185,2197
0.176,1592
-0.279,9745
-0.0525,5968
-0.148,9577
0.0947,2448
-0.0244,6849
0.188,253
0.147,1928
0.0406,3722
0.104,2611
-0.0508,6673
0.00215,4918
0.048,2473
-0.172,9963
-0.0416,6309
-0.148,7837
0.164,1085
0.00634,4814
-0.0238,6273
-0.115,9156
0.0645,3351
0.155,133
0.342,2071
-0.00778,5354
-0.0351,6437
0.154,2315
0.143,3062
0.00527,4876
-0.0197,5575
-0.185,10211
-0.0917,9505
0.0238,4491
0.0257,4144
-0.191,9618
-0.169,9756
-0.0907,7932
-0.0959,7975
0.09,1589
-0.0276,5874
-0.023,6659
-0.0901,8802
-0.0331,6014
-0.00858,5310
-0.221,10293
0.0401,4333
-0.0361,5484
-0.252,5007
0.0405,3193
-0.0558,7392
0.0698,2655
0.00314,4882
0.254,1127
-0.158,9163
-0.0346,6000
-0.0912,8884
-0.136,8811
-0.0402,6336
0.302,1423
0.267,555
0.124,664
0.00922,4890
0.0857,2495
-0.0968,8453
0.0977,3348
-0.0289,6492
0.1,1587
0.3,349
-0.2,10165
0.139,2555
-0.259,10385
0.0458,4128
0.0796,3024
0.102,1862
0.00757,4733
0.292,666
0.00834,4724
0.211,3027
-0.13,9740
-0.119,9506
0.43,165
0.821,995
-0.021,5445
-0.123,5994
0.0962,2521
-0.137,9658
-0.0529,5517
0.0168,4837
-0.293,9146
0.232,1185
0.0456,3143
0.12,1978
-0.15,7659
0.0217,4434
0.161,2129
0.0384,3592
-0.0812,8846
0.00681,4835
-0.183,8609
-0.314,9677
-0.175,9280
-0.276,10262
0.209,2511
0.127,346
-0.0283,5687
0.215,623
-0.158,7887
0.184,802
0.436,890
0.0996,1430
-0.011,5196
-0.0298,5252
0.0318,4256
0.108,2195
0.207,513
0.0914,2784
-0.204,9094
-0.122,8070
0.186,2013
0.245,1719
-0.0579,7646
-0.0311,6198
-0.0619,6560
0.327,242
-0.093,7356
-0.116,8975
0.239,194
0.0422,3427
-0.227,10055
0.383,62
0.234,3004
-0.042,6232
0.1,1594
-0.0466,6939
0.414,418
-0.0978,8213
-0.164,8934
0.0426,3572
0.00185,5074
-0.189,7147
0.0196,4250
-0.155,7756
-0.033,5832
0.0854,2973
-0.2,9699
-0.132,8809
-0.243,9276
-0.044,7957
0.299,519
-0.151,9984
-0.0416,6319
0.00898,4683
0.284,654
-0.0238,6186
-0.185,9021
-0.173,9313
-0.0721,7871
-0.0158,6013
0.121,2185
0.173,1494
-0.0116,5231
-0.294,10357
-0.179,8759
0.106,1604
0.169,2751
-0.252,8989
-0.129,8887
-0.0902,7037
-0.106,8008
-0.0538,7724
0.0962,2957
0.137,2759
0.115,1524
0.438,686
0.0156,4541
-0.035,6929
0.231,293
0.262,2523
-0.204,8995
0.107,3149
0.00459,4852
-0.0541,6969
0.13,1926
-0.146,8563
0.0873,3207
0.132,1925
-0.142,9584
0.0922,2399
0.127,1861
-0.0507,6575
0.207,1234
0.178,1266
0.0899,2107
0.11,2787
-0.0534,5782
-0.551,9522
0.223,3162
-0.913,9624
9e-05,5000
-0.0727,8517
0.0601,3234
0.169,1952
-0.0461,6684
-0.015,5332
-0.0564,6903
0.702,229
0.0437,3241
-0.0334,6040
-0.0905,9126
-0.164,9561
0.0475,3873
-0.0239,6237
-0.106,7485
-0.129,8459
0.224,318
0.0584,4005
0.0453,3523
-0.311,10118
0.131,3946
-0.0176,5402
0.0679,3124
0.42,367
0.137,1684
-0.0417,5701
-0.136,6414
0.0971,2369
0.216,1139
0.129,1206
0.0392,3044
0.0102,4638
-0.0782,7386
0.374,340
0.446,1494
0.0311,3551
0.0843,2288
0.0241,3698
0.392,365
-0.337,9893
1.39,620
-0.385,9520
-0.00513,5313
-0.0812,7202
0.0212,4336
-0.192,10325
0.206,1851
0.298,1101
-0.151,9056
0.405,94
-0.242,10093
-0.319,10285
-0.234,9784
-0.0222,5448
-0.083,8819
-0.0301,6666
-0.0947,8314
0.0335,3585
0.0841,2809
-0.0559,6711
0.131,1496
-0.147,7962
-0.0394,6294
0.0644,3334
-0.0661,6678
0.045,3862
-0.118,9417
-0.105,7843
0.353,733
0.0311,4205
0.00646,4816
0.416,1176
0.102,2187
-0.0835,9437
-0.0846,8271
0.0566,2555
0.0079,4825
-0.0512,6839
0.206,355
0.15,1135
-0.498,9264
0.141,3507
0.0622,3233
-0.0335,4424
0.141,1720
0.0482,1634
0.0581,3133
-0.0324,6176
0.0949,3185
-0.0266,6226
0.02,4392
-0.159,8907
-0.202,9399
-0.0539,7054
-0.198,9515
0.088,1771
0.0241,4165
-0.046,7649
0.176,1793
0.00852,4380
-0.0163,5411
0.107,2149
-0.106,7025
0.09,2754
0.179,1270
-0.398,9934
0.0537,3938
0.28,729
-0.05,7730
0.153,1170
-0.237,10328
-0.38,9774
0.026,4521
0.342,967
-0.104,9266
-0.0869,7643
-0.109,7225
0.0187,4468
0.0857,1721
-0.0273,5097
-0.181,10204
0.0583,1934
0.303,485
-0.418,10356
0.081,3270
0.0961,3683
0.112,1870
-0.183,8966
-0.35,10019
0.19,1355
-0.823,9676
0.159,2572
0.00844,4636
0.213,313
-0.0916,6939
0.084,2740
0.0086,4843
-0.154,7918
0.201,258
-0.139,10334
0.0502,3821
-0.111,8757
-0.241,10263
0.209,1739
-0.0716,7727
0.00432,4957
-0.147,9363
-0.0824,7454
-0.132,9753
-0.0935,8692
-0.0538,6508
-0.134,9389
-0.262,9844
0.0868,3329
-0.152,9842
-0.431,10292
-0.0398,6944
0.0141,4483
0.201,1660
0.0129,4576
-0.196,7063
0.178,1174
0.045,3351
-0.0395,6901
-0.516,8899
0.259,1393
0.462,769
-0.0145,5948
0.0371,3250
-0.126,8539
0.0883,2299
-0.211,9667
0.0305,4366
-0.00274,5243
-0.0328,5663
-0.0668,7418
-0.243,9652
-0.258,8740
-0.16,8857
-0.0742,6356
0.0036,4981
-0.258,6626
-0.0199,5275
-0.377,10270
-0.0257,5430
-0.0784,6187
0.472,760
-0.000874,4579
-0.217,8780
0.785,246
-0.000859,5288
0.14,245
0.0757,1941
0.19,862
-0.0934,8120
-0.141,8129
0.00132,4782
-0.113,8840
0.0722,3022
-0.214,7567
-0.0464,6091
-0.078,7640
-0.228,10250
0.213,1451
0.302,1209
-0.226,9869
-0.0781,8159
-0.00989,5174
0.0669,2540
-0.169,9775
-0.0461,9313
-0.432,10356
0.0978,3142
-0.119,7726
0.108,2414
0.0208,4131
0.139,1155
-0.126,8236
-0.124,9405
0.0862,2645
-0.0117,5231
0.0947,1605
-0.185,9943
-1.31,10318
-0.149,8975
-0.0889,7045
0.178,542
-0.0738,7138
-0.137,9073
0.178,1070
0.0201,4177
0.393,854
0.0586,4340
-0.0982,9547
-0.0229,5664
0.0834,2194
0.344,667
-0.0242,5635
0.00693,4853
0.361,346
-0.0109,5234
0.165,1269
0.156,2138
-0.168,10071
-0.0905,7070
0.074,2441
-0.0503,5759
0.0293,4136
0.274,734
-0.0424,6361
0.313,313
0.0812,2589
0.0803,2028
-0.178,9328
-0.0837,6582
-0.159,9270
-0.137,8748
-0.0215,6356
0.19,510
-0.129,9488
-0.436,10388
0.0859,3458
-0.318,9876
0.015,4641
-0.146,10174
-0.0909,7275
-0.0741,6629
0.0157,4554
0.118,3059
0.121,1633
-0.0875,7851
0.101,1855
-0.0616,6897
0.0889,1917
-0.0771,7680
-0.00456,5282
-0.139,7961
-0.00412,5019
0.0387,4110
-0.0275,6060
-0.0367,5436
0.118,2034
0.226,793
-0.264,9376
0.062,3004
-0.389,10154
-0.568,10351
-0.00486,5193
0.0125,4759
0.0355,4361
0.119,1960
-0.055,7065
0.387,576
-0.0675,7381
-0.115,9580
-0.861,9714
-0.168,8795
-0.145,8313
0.198,1241
0.103,1847
-0.157,8316
-0.0313,5794
0.375,735
-0.152,9838
-0.0547,8276
0.00198,5071
0.207,72
0.306,34
0.0347,3601
-0.0281,5616
-0.178,7864
-0.00581,5311
0.103,1817
0.0636,3249
-0.0868,7207
0.0147,4653
0.0412,2769
-0.00674,5489
-0.206,10237
0.278,2219
-0.00733,5799
0.0172,3956
0.0245,4013
0.0192,4354
0.0724,3701
0.187,1145
0.0756,594
0.0215,3507
-0.0583,4343
0.0658,3623
-0.113,9734
0.0264,4118
0.284,770
-0.00771,5204
-0.123,7577
-0.171,8649
0.171,1240
0.058,3214
0.225,597
-0.346,10010
0.0314,4086
-0.173,9673
-0.0609,6827
-0.182,10422
-0.002,5232
-0.233,9371
0.34,1359
0.067,3467
0.0598,3676
-0.0226,5300
-0.0717,8617
0.0681,2718
-0.0943,7397
-0.197,7117
0.544,102
0.311,120
-0.0139,5460
-0.227,10373
-0.00407,5566
0.193,1111
-0.0393,5605
0.163,1187
-0.101,8969
0.00304,5013
0.0163,4727
0.103,1634
-0.128,6575
0.0779,1709
-0.00789,5620
0.193,1040
-0.0698,7243
0.455,576
0.16,1101
0.133,724
-0.0286,5989
-0.186,9908
0.289,505
0.00914,4747
0.366,136
0.0102,4521
0.0762,1141
-0.14,9206
0.245,299
-0.117,7321
-0.0133,5739
0.0195,3962
0.0836,1888
0.0635,2990
-0.054,5308
0.0354,3481
-0.152,8266
0.000284,5343
0.0771,2053
0.0311,4031
0.181,1553
-0.17,9562
-0.426,10463
0.351,851
-0.166,9809
-0.166,8036
-0.0493,7569
-0.183,8257
-0.291,7949
0.0331,3862
0.0672,3449
-0.00544,5212
0.27,380
-0.142,8804
0.083,2900
0.195,765
0.0348,3418
-0.098,8385
-0.0993,7727
0.0716,2964
-0.137,8881
-0.0163,6039
-0.166,10238
-0.145,8834
0.0842,3588
-0.203,9389
0.143,696
-0.0688,7233
-0.0397,6440
-0.0446,6210
-0.203,8198
-0.314,9957
0.0863,2780
-0.182,9501
0.588,2073
-0.00564,4441
0.216,1050
-0.59,10029
-0.0312,6430
-0.0172,5276
0.161,2389
0.164,1120
-0.0187,5933
0.0597,3559
-0.0253,5732
-0.586,10359
-0.0932,7985
-0.0586,6325
-0.039,6577
0.116,1114
0.00351,5014
-0.0584,5586
-0.0471,6110
-0.0604,8064
0.0454,3375
-0.0364,6221
-0.165,9402
-0.157,7184
-0.0622,6536
-0.066,6809
-0.0344,5975
-0.0628,7016
0.194,511
0.0948,2605
0.117,2342
0.322,619
-0.0104,5148
-0.171,9379
1.89,659
-0.0552,6855
-0.156,8249
0.328,1045
0.124,864
0.032,3837
-0.0623,8275
-0.18,8617
0.207,928
-0.019,5513
-0.391,10199
-0.0981,6859
-0.00134,5114
0.0537,3490
-0.0631,5632
-0.063,6839
0.0739,2221
0.0856,2612
0.0178,4284
-0.00825,5393
0.185,2810
-0.22,6758
-0.053,6232
0.0441,2604
0.169,1072
-0.147,5598
-0.241,10060
-0.217,10381
-0.088,8454
0.134,2295
-0.0274,6212
-0.11,6376
-0.302,7195
-0.0639,7155
0.0377,3879
-0.0573,6930
-0.0188,5685
0.0639,3647
0.248,1779
0.0917,739
-0.306,10164
0.0759,2941
-0.218,10249
-0.321,9500
-0.219,10014
-0.00656,5366
0.00576,4739
-0.089,8456
-0.2,9719
0.013,4668
-0.0871,6548
0.0838,2899
-0.178,9758
-0.0492,6481
0.0585,2882
-0.212,8890
0.0584,3676
-0.0116,5515
-0.0152,5770
-0.019,5409
-0.0465,6357
0.0559,3476
-0.0448,6366
-0.088,8263
0.01,4619
-0.175,8008
0.757,1250
0.089,3849
-0.101,6026
-0.0475,7298
0.0893,1983
0.105,2616
-0.169,9196
-0.0762,7461
0.032,4160
-0.0969,9079
0.176,1259
0.127,2251
-0.0521,6858
-0.108,7829
0.102,2170
-0.11,8756
-0.133,8660
-0.0345,6053
-0.0378,5610
-0.167,8894
-0.08,7028
-0.0394,6850
-0.0536,8641
0.0713,3788
0.226,580
-0.0225,5505
0.0282,4303
-0.14,8825
-0.119,7435
0.0858,2453
-0.0568,7252
-0.158,8009
0.0451,3246
0.0548,1920
-0.248,7829
0.151,881
-0.255,9048
0.175,1093
-0.0114,5539
0.0757,1605
-0.0941,8127
-0.00785,5088
-0.0609,7130
-0.252,8127
-0.157,9995
-0.0342,6591
-0.0867,8544
0.0352,4344
0.51,1126
-0.219,8579
-0.0511,5824
0.0694,2462
0.0107,4869
-0.0341,6791
0.0834,3256
0.126,2509
-0.227,10160
-0.0736,8873
0.0137,4701
0.21,1049
0.0456,3282
-0.128,8840
0.093,1450
0.0508,3092
-0.165,7579
0.00273,5069
0.0964,3216
-0.13,7289
0.078,2927
-0.0399,6168
0.0507,3850
0.22,2368
-0.0359,4552
-0.354,8915
0.00246,5160
0.09,1884
-0.134,8845
0.0819,2442
0.181,2386
0.657,448
0.194,725
0.284,1846
0.262,1433
0.174,2015
-0.227,9661
-0.117,6924
0.00445,4926
-0.0629,7473
-0.199,9853
-0.646,8163
-0.0548,6528
-0.111,8519
-0.199,9347
-0.102,7364
0.156,2785
0.116,2451
-0.27,7598
-0.271,9415
0.094,1900
0.00707,4786
-0.061,6916
-0.201,9694
-0.374,9304
-0.0664,7071
-0.0239,5999
0.405,59
0.0417,3649
-0.0893,7002
0.0631,3177
0.0129,4628
-0.0359,6658
0.0436,3104
0.0378,3951
-0.171,9237
-0.0247,6473
-0.0976,7978
0.0335,3235
0.175,821
-0.0867,7003
0.106,2414
0.0418,3825
-0.022,5611
-0.00129,5311
-0.00516,5260
-0.106,8781
0.0614,3020
0.0503,4173
0.263,1218
0.0468,3217
0.127,1199
-0.0962,8065
-0.462,10387
0.0267,3961
0.274,1698
-0.0599,8508
0.0145,4030
-0.334,9550
-0.165,8276
0.0936,2985
-0.0216,5561
-0.0382,6042
0.0112,4605
-0.00995,5441
-0.109,7872
0.202,1880
-0.00268,5225
-0.0438,7804
0.0365,4384
-0.0772,5779
-0.238,10261
-0.221,8263
0.848,487
0.0138,4676
-0.036,6288
0.0225,4671
-0.328,9165
-0.0262,5454
0.232,511
-0.0339,7489
-0.11,8126
-0.079,7562
-0.187,6845
-0.0655,7094
-0.158,9125
0.00361,4955
-0.0981,6240
0.41,207
-0.122,9292
-0.0964,7755
-0.0198,6659
-0.0124,5592
-0.0321,5626
0.00392,5031
0.195,1567
0.0112,4644
-0.0915,9357
-0.178,8992
0.104,3569
-0.265,6898
-0.0699,6450
0.133,3476
0.0464,4192
0.00879,4931
-0.0328,6298
0.144,1582
-0.046,7121
-0.039,6568
-0.0465,6756
-0.0439,6966
-0.0705,6565
0.121,1732
0.0168,4341
-0.0353,6051
0.214,1272
0.153,1667
0.0321,4029
-0.0525,8447
0.139,434
0.138,1035
-0.0596,6583
0.00617,4487
0.0837,2357
-0.0571,6957
0.0917,2835
-0.0132,5641
0.0392,4139
0.164,1469
0.0943,2968
-0.0717,7941
0.0663,3089
0.153,1649
-0.0714,7430
-0.29,9874
-0.192,10333
-0.0359,5960
0.216,1340
-0.185,9377
-0.0953,7534
0.0118,4873
-0.101,7074
0.0598,3649
0.0335,3069
-0.243,9442
0.109,955
0.144,1721
0.123,2773
0.121,1168
0.252,23
0.0772,2941
0.154,2271
-0.278,8409
0.151,3139
-0.0913,7776
0.0576,2834
-0.0906,9707
0.326,433
0.285,1237
0.197,1624
-0.11,8267
0.0875,1611
-0.101,8686
0.0107,4385
-0.26,10273
0.0211,4152
-0.0443,6351
-0.0535,6818
-0.00865,5420
0.0906,2219
0.167,1071
0.00447,5092
0.0236,3649
-0.133,9192
0.207,778
0.0703,3388
0.0505,3581
0.0761,2585
0.155,2114
-0.00983,5694
-0.0625,7202
-0.0795,7734
0.228,1783
-0.186,9345
-0.19,8723
-0.0486,6846
-0.119,8906
-0.255,9053
0.414,475
0.0737,1561
0.02,4712
0.195,1179
0.152,1074
-0.0513,6050
-0.0687,7859
-0.255,8100
0.0924,3816
-0.0373,5939
0.0294,4166
-0.102,7070
0.154,1183
0.151,1516
-0.0205,6318
0.00634,4929
0.124,2098
-0.00937,5236
0.0821,3135
-0.153,8744
0.0152,4717
-0.0556,7056
0.00416,5056
-0.06,6989
-0.072,7300
-0.119,9128
0.161,421
0.264,1702
0.0657,3784
-0.0865,7745
0.0805,3155
-0.0106,5686
-0.00685,5126
-0.239,10223
-0.213,10057
-0.0332,6079
0.0707,3265
-0.105,7384
0.0435,3612
-0.0106,5584
0.0976,2470
-0.0401,6190
0.176,1539
-0.29,10130
-0.142,8975
-0.047,5819
0.0145,4468
-0.334,9965
-0.332,8124
-0.0257,6321
0.0452,2489
-0.0335,6100
-0.0373,6266
0.222,247
0.11,3558
0.0162,4284
-0.0933,8796
0.269,718
0.172,2048
0.0456,4162
-0.15,8954
0.0227,4474
-0.103,8414
-0.104,7395
-0.164,9096
0.158,1132
-0.406,9081
0.035,4010
-0.29,10429
-0.116,7644
-0.3,9789
-0.0437,6223
0.74,100
-0.0523,8033
0.0214,4340
-0.0812,7847
-0.0608,7080
-0.0629,6940
0.254,1865
0.0341,3367
0.00483,4701
-0.448,9236
0.091,2277
-0.152,9185
0.104,1500
-0.0381,6989
0.101,1057
-0.19,9246
-0.134,9670
-0.00848,5234
0.173,1110
-0.0672,8043
0.0191,3798
-0.00627,5117
-0.0497,6506
0.019,4509
0.000609,5131
-0.18,9301
-0.0601,7793
0.0235,4121
0.36,724
0.0333,4021
0.498,10
0.0263,3901
0.0104,4550
-0.0712,6527
0.368,90
-0.134,7874
0.0925,2887
0.0213,3592
-0.0918,8516
0.28,585
0.00386,4925
-0.0672,5611
0.0463,3983
-0.0912,8410
0.0013,5087
-0.00281,5312
-0.316,10372
0.587,815
-0.149,8474
-0.16,10211
-0.026,6513
-0.321,8928
-0.111,8999
0.324,130
0.389,499
0.201,416
0.149,921
-0.0529,6310
0.194,1780
0.2,950
0.189,1944
0.113,1589
0.0846,2421
-0.314,10456
-0.183,9288
-0.0757,8133
-0.3,7743
0.0501,2906
-0.0344,8280
0.154,2266
-0.23,10141
0.422,1501
0.0242,4502
-0.102,9566
0.128,1203
-0.446,10305
-0.061,6015
-0.102,6823
0.295,1711
0.0953,2095
-0.103,7298
0.193,597
0.0995,1783
0.108,1639
0.0561,3960
-0.105,9508
0.112,2170
0.21,928
-0.171,9815
-0.276,5901
0.0282,4269
-0.0113,5509
-0.00986,5305
0.0527,3058
-0.00129,5010
0.167,1315
-0.15,7256
0.0151,4688
-0.0909,8003
-0.081,6839
-0.0044,4509
-0.127,7989
0.00539,4776
-0.0894,9605
-0.0204,5638
0.179,1283
0.253,795
-0.0578,7328
-0.109,6597
0.125,1250
-0.0601,6194
0.0387,3801
-0.387,10424
-0.15,9242
0.216,1532
-0.0169,6325
0.00766,4866
-0.0592,7294
-0.0635,6720
-0.158,7162
-0.0468,6096
0.022,4177
0.126,1031
-0.0765,7100
-0.119,8816
-0.383,10169
0.0835,3018
-0.0121,5435
-0.0931,7732
0.2,1636
0.023,4530
0.083,1461
0.214,1705
0.017,4387
-0.124,10279
-0.14,9854
-0.129,9876
-0.234,10168
0.0648,3170
-0.288,9981
-0.0969,9216
-0.0104,5678
-0.245,9201
-0.259,9763
-0.243,8262
-0.171,6835
-0.000574,5207
-0.107,9637
-0.178,8704
-0.0707,7973
-0.162,8495
0.121,2241
-0.0497,7257
-0.0561,8945
-0.361,7362
1.56,499
-0.173,4248
-0.101,6875
0.173,3138
0.042,3241
-0.156,8797
-0.109,7612
0.0233,4202
-0.00352,5306
0.0324,3567
-0.14,9172
0.205,1216
-0.301,10013
-0.24,10230
-0.0192,5518
-0.0878,8754
-0.0234,5506
-0.137,7950
-0.0114,5365
-0.253,9467
0.0678,2835
-0.402,9796
0.0519,3895
-0.0611,6886
0.0796,3268
0.353,1975
-0.113,7915
0.00232,5156
-0.00427,5214
-0.638,8467
0.696,695
-0.2,7049
-0.177,8426
0.0532,2776
0.0265,4162
-0.0763,4278
-0.411,9360
0.118,3884
-1.11,10234
0.0991,2242
3.34,96
0.246,2265
-0.182,5974
0.0951,2397
0.6,2144
-0.0548,6640
0.0701,2690
-0.0299,5985
-0.1,7883
0.0514,3583
0.232,244
-0.207,9129
0.084,3031
-0.147,10365
-0.491,9325
-0.256,10105
-0.084,7427
0.0227,3927
-0.00269,5067
0.0131,4537
0.0485,3302
0.359,359
-0.116,7403
-0.037,7105
0.115,1791
-0.242,10311
-0.195,9824
-0.0337,7029
0.00649,4732
-0.177,7878
0.106,3184
-0.5,10058
0.0983,2201
0.318,967
-0.0759,9331
-0.641,10088
0.161,3095
-0.12,6973
-0.0843,7147
-0.0628,7175
-0.0477,6547
-0.0718,7226
-0.0107,5409
-0.213,9890
-0.0431,6549
-0.0527,7745
-0.0507,6911
0.0368,4049
-0.164,8603
-0.0155,5383
0.326,893
0.0225,3886
0.0367,3109
0.215,2573
0.0146,4441
-0.378,7441
0.045,3925
0.123,2914
0.2,959
0.0743,3671
-0.00691,5135
0.137,1127
-0.106,9256
-0.132,9670
-0.468,10141
0.058,3113
-0.245,5282
-0.214,8880
0.0919,1497
-0.0247,5962
-0.044,6179
0.202,518
-0.0369,5598
0.0955,3090
-0.0594,8071
0.183,1210
0.141,1920
-0.144,8607
-0.214,9893
-0.195,10063
0.0419,3013
0.0985,1897
0.113,3431
0.304,790
-0.0888,7206
0.128,3124
-0.106,9439
-0.282,9972
0.0906,3835
0.355,32
-0.236,8702
0.113,1259
-0.192,8345
-0.113,7699
-0.0767,6727
0.0408,3672
0.219,805
0.047,3027
-0.156,9629
-0.105,10014
-0.0991,7696
0.17,1268
0.153,1858
-0.352,8925
-0.118,8617
0.0318,3678
-0.181,9239
-0.067,8095
-1.18,10475
-0.179,8022
-0.215,10079
0.0101,4352
-0.825,10164
-0.227,8167
-0.282,7717
-0.475,9984
0.284,1511
-0.145,6350
0.00681,4829
0.368,177
0.0113,4586
-0.0566,6435
0.0411,2440
0.0492,2789
-0.272,10392
-0.0123,5390
-0.275,9476
0.228,286
0.525,368
-0.0209,5750
0.0991,2317
0.101,2648
-0.0574,6953
-0.395,10410
0.0821,1485
0.0287,4452
-0.0389,6277
-0.153,8100
-0.0822,7097
-0.065,6101
0.0238,3968
0.153,1792
0.0167,4417
-0.00385,5537
-0.476,10211
-0.158,9591
-0.444,10384
0.114,964
-0.0806,8017
-0.129,8558
0.0509,3809
-0.135,6571
0.0602,3185
-0.00711,5289
-0.151,10065
-0.045,6494
-0.162,8696
0.0792,2231
-0.0414,6940
0.0263,3840
-0.0887,6594
0.153,1907
0.204,1792
0.0339,4265
-0.115,8902
-0.103,7794
-0.198,8729
0.0292,4265
-0.0516,5917
0.167,1464
-0.0246,5561
0.118,1279
-0.31,9471
-0.0299,5604
-0.0548,6272
0.135,1913
-0.00797,5166
0.111,1000
0.0357,4281
-0.153,7420
-0.225,7801
-0.0619,6861
-0.0579,6278
0.108,2252
-0.00236,5375
0.127,2813
0.015,4338
-0.00263,5391
-0.236,10183
0.0311,4063
0.176,1891
-0.224,7875
-0.272,9745
-0.045,7470
-0.0655,7583
-0.0549,4482
-0.0587,6060
0.217,2157
-0.201,10317
0.0804,2605
-0.0484,7824
-0.105,9721
-0.314,10380
-0.355,10155
-0.379,10449
-0.378,10441
-0.386,10446
-0.0591,6429
0.0716,2621
-0.11,7082
-0.0222,6181
-0.0487,6801
0.083,1748
-0.0334,5877
0.036,3374
-0.0164,5234
0.1,3110
-0.0712,6140
-0.212,10063
-0.0143,5641
-0.0812,7349
-0.048,6518
0.584,186
-0.0392,6279
-0.0185,6448
-0.0178,5540
0.0338,4099
-0.0262,6341
0.291,183
0.163,530
0.0298,3270
0.166,664
0.133,1957
-0.545,10385
0.775,222
-0.0507,6994
0.166,212
0.238,1142
0.00126,5087
-0.0334,5757
-0.137,6004
0.0315,4284
0.0398,3793
0.0518,4083
0.0017,4937
0.225,1696
0.0016,5155
0.0333,3974
0.0835,2592
-0.149,8077
-0.0942,7769
0.217,1777
-0.357,9170
-0.117,9062
0.0147,3857
0.0455,3451
-0.2,8197
-0.0827,7933
-0.133,8141
-0.0616,7902
0.0826,1904
-0.419,9669
0.0427,3427
-0.28,8767
0.0937,2973
0.0771,2748
0.0345,2811
-0.0537,7001
-0.0445,6800
0.256,735
0.00764,4740
-0.127,9861
-0.0653,8303
-0.028,5410
0.183,1233
0.0929,2502
0.00526,4969
-0.791,10099
-0.0422,7325
-0.0366,6149
-0.023,5759
0.124,2372
-0.00792,5376
0.105,1827
-0.249,9385
-0.347,9656
0.0656,3182
0.225,262
-0.313,9917
0.0664,2837
0.203,902
0.0602,2440
-0.0101,5521
-0.134,9111
0.0497,3925
-0.0306,7836
-0.128,9701
0.188,368
-0.0153,5647
0.156,2304
0.0753,2797
0.23,559
0.0518,2762
0.0398,3667
0.144,1845
0.0456,3657
0.236,2337
-0.0959,7323
0.0907,2248
-0.535,9727
-0.149,9024
-0.103,6983
0.149,1619
-0.0607,7583
-0.113,8755
-0.0326,6394
0.0282,4314
-0.347,10316
0.0555,2980
-0.265,9511
-0.106,7577
0.0821,2265
-0.09,7276
-0.12,8986
0.135,537
-0.0414,7163
-0.0405,6061
-0.0907,7219
0.391,716
0.169,2211
0.488,318
-0.0325,6860
-0.195,10298
-0.101,8240
-0.0762,7387
-0.156,6427
0.0409,4065
0.075,1676
0.113,2309
0.0108,4647
0.198,1434
-0.497,9154
0.082,2781
0.0331,3798
0.112,787
-0.00634,5005
0.082,2932
-0.492,9157
-0.286,9672
-0.204,9616
-0.239,8615
-0.0761,7493
-0.225,9428
-0.111,9067
0.108,3340
-0.0884,9593
-0.024,6121
0.0132,4698
0.0885,2706
0.199,1924
-0.237,8267
0.0162,4371
-0.202,10317
0.0904,1629
0.12,808
-0.0268,5819
0.0664,3098
0.142,36
0.0628,3537
-0.169,8486
-0.348,10293
-0.335,10422
-0.0898,7342
0.0685,3382
0.0655,246
-0.312,9920
0.107,2686
0.0532,4104
-0.176,9806
0.0731,1657
-0.216,9114
0.592,317
0.0352,4108
0.206,1632
0.0425,3474
-0.0425,6625
0.241,685
-0.0323,5913
0.00346,4894
0.0287,4549
0.0715,2293
0.0119,4675
-0.00136,5320
0.158,2548
-0.00611,5389
0.0302,4277
0.166,1050
0.0065,4786
0.282,76
0.0765,2293
-0.1,7145
-0.195,10182
-0.274,9460
0.027,3080
0.00772,4796
-0.0684,6757
0.217,902
-0.0209,5646
-0.0763,7357
0.0253,3832
0.137,786
0.08,2943
0.406,152
-0.167,10235
-0.187,9981
0.127,451
-0.0299,6287
-0.147,7828
-0.0985,8724
0.207,2800
-0.242,9869
0.000411,4963
-0.0362,7709
-0.0614,6429
0.12,2297
-0.0323,6030
-0.0298,5791
0.0194,4378
0.048,3564
-0.0578,6316
-0.247,8108
0.286,615
-0.083,6922
0.178,389
-0.195,9974
0.318,2268
0.599,38
0.419,66
0.351,480
0.175,42
0.0522,2985
-0.229,9294
0.122,1953
0.0236,4186
-0.0123,5356
0.0243,3598
0.171,810
0.00927,4909
-0.535,10468
-0.127,8205
0.0753,2947
-0.0137,6007
-0.0172,5575
0.0526,3540
-0.0674,6300
0.0118,4708
-0.0775,6273
-0.0052,5323
-0.0504,7158
-0.358,9970
0.424,709
-0.498,8540
-0.172,8092
-0.16,9682
-0.147,9033
-0.409,10361
-0.0135,5265
0.197,345
-0.0466,5740
-0.00108,5039
-0.194,10276
-0.236,8580
0.12,2907
0.138,530
0.069,4011
-0.138,8244
0.0479,3418
-0.101,5842
-0.122,8825
0.974,981
0.0382,4378
-0.154,10216
-0.42,5931
-0.341,10338
0.247,2230
-0.199,10338
0.176,863
0.0369,3757
0.0305,4544
-0.0964,6985
0.713,1508
0.196,2517
-0.117,7083
0.261,813
0.0246,4376
0.0181,4620
-0.234,7610
-0.0112,5429
-0.0902,9320
0.235,1074
0.302,1329
0.826,750
0.0194,4429
0.0423,3560
-0.0698,7041
-0.107,8953
-0.152,7868
0.171,1264
-0.878,10464
-0.359,9128
-0.0882,8946
-0.0521,6762
-0.0633,6398
0.158,336
0.959,426
-0.181,9712
0.0397,2952
-0.0428,6618
-0.592,9245
-0.0186,5564
0.229,2634
0.121,2538
-0.126,8823
0.037,3056
0.167,1185
-0.096,8540
1.64,100
0.116,1739
-0.191,9680
0.022,3685
0.0322,4452
-0.258,10075
-0.102,7913
0.169,1077
0.115,1865
-0.103,9250
-0.226,9670
0.422,194
-0.00964,4868
0.0038,4532
-0.0104,5424
0.172,174
-0.0252,5811
-0.715,10173
0.0831,3263
0.0824,2835
0.00518,4660
0.0199,3915
-0.346,10100
0.115,2729
-0.0311,6201
-0.195,8812
-0.125,7539
0.0302,3889
0.109,2987
-0.145,9252
0.315,427
0.132,2356
0.0558,3566
0.0835,2685
0.00919,5214
-0.0657,8778
-0.368,10341
0.0241,4463
-0.162,10241
-0.0337,5620
-0.375,10083
-0.436,10235
-0.222,7806
-0.352,10072
-0.17,9951
-0.414,10271
-0.0606,6843
0.11,2734
0.0325,4161
-0.064,4772
0.145,1178
0.0904,3144
-0.334,10270
0.603,227
-0.0888,7181
0.125,1408
-0.138,9079
-0.0472,7289
-0.0116,5566
-0.0787,7578
0.0826,3352
0.127,2033
-0.144,10003
-0.151,9817
-0.0624,6861
0.0358,3381
-0.305,9293
-0.245,9975
-0.029,6612
0.0471,3272
0.0207,4585
-0.0891,7441
-0.134,7085
0.0588,3372
-0.0509,7288
-0.044,6539
-0.0648,7649
-0.146,8984
0.195,1481
-0.00852,5083
0.11,1896
-0.0469,7262
-0.0667,5456
-0.263,8461
0.0666,2626
-0.0654,7210
0.0829,2523
0.23,1381
0.0861,2984
-0.0244,6175
0.0398,3733
-0.103,9429
-0.0199,5898
-0.0295,7079
0.024,3661
0.21,158
-0.0882,8849
-0.00195,5266
-0.0729,6846
-0.0609,6874
-0.048,6904
0.117,1789
-0.0794,7540
-0.149,8893
0.131,1650
-0.0234,6559
-0.0537,5343
-0.139,8650
-0.0665,8000
0.116,2202
-0.264,8242
0.319,461
-0.0557,6431
0.0298,4028
-0.0375,6302
-0.641,9043
-0.173,9916
0.0411,4162
0.236,176
-0.0101,5662
0.59,586
-0.174,9397
-0.271,10283
0.00305,4836
-0.0986,7405
-0.0791,7399
0.176,1447
0.176,1257
0.13,1876
0.00457,4731
-0.0101,5540
-0.0116,5014
-0.337,8839
0.081,3917
0.0804,2612
-0.103,8263
-0.119,8307
-0.0992,8367
-0.0527,5624
0.0225,4492
-0.0893,8210
0.0756,2517
-0.0365,7323
-0.114,6795
-0.0187,5868
0.151,2067
-0.00718,5305
-0.112,9856
-0.298,9602
-0.0415,6613
-0.059,6719
-0.0873,8084
-0.0351,6801
-0.131,7456
-0.398,9923
0.0952,1869
-0.15,8097
-0.0552,7265
0.0502,2959
0.257,823
0.00739,4766
-0.119,7698
-0.238,8972
0.188,2938
-0.0564,7897
-0.0136,5809
-0.122,8633
0.0232,4247
-0.0807,6619
-0.165,7176
0.102,1627
0.0377,4084
-0.16,9460
0.179,2073
-0.0574,7712
0.0819,2500
-0.00778,5596
0.143,1711
-0.071,7094
0.0793,3056
-0.141,7428
0.189,2303
-0.0778,8059
0.00334,5153
-0.0399,6561
0.0389,3909
-0.0173,5612
-0.173,5325
0.184,566
-0.161,9583
-0.117,8151
-0.163,7325
-0.0518,5709
-0.494,10393
0.062,1048
-0.0163,5821
0.0824,2893
-0.0217,5339
0.113,1647
0.0788,1452
-0.00448,5204
-0.0678,7880
-0.137,7519
0.0914,3084
-0.0911,6388
-0.215,7827
0.0202,4496
0.168,360
-0.176,8290
-0.0766,7404
-0.0808,6596
0.0842,3291
-0.0946,8187
0.0178,4605
-0.077,6972
0.0312,4274
0.268,632
0.108,1549
-0.0569,6212
-0.167,9290
-0.12,6941
1.34,68
0.0927,3473
0.0105,4355
0.0085,4498
0.162,1421
-0.143,8102
-0.0554,5860
-0.112,8549
-0.0636,7465
0.0237,4274
-0.0348,5291
0.0277,4292
-0.169,8566
-0.0843,8173
0.111,874
0.00706,5047
0.262,997
-0.0912,8104
-0.173,9882
0.202,3037
-0.0875,8939
-0.0793,7833
0.0808,2881
0.0372,3814
0.107,2346
-0.126,6420
0.256,1664
0.0163,4455
0.129,3204
0.203,441
-0.0278,5190
0.334,432
-0.057,7594
-0.0993,7093
0.104,1842
0.249,975
-0.148,7353
-0.72,10114
-0.156,9854
-0.105,9205
0.272,624
-0.202,8256
-0.183,6725
0.182,784
-0.0121,5637
-0.0881,8823
-0.0427,6446
-0.326,10082
-0.591,7337
-0.124,9328
0.124,2001
0.0413,4104
-0.12,8911
-0.231,9481
-0.00832,5205
0.0994,2127
0.463,96
-0.0934,7529
0.199,1707
0.0616,2246
0.126,1206
-0.0141,5450
-0.0467,6307
0.0592,3373
0.106,2565
0.42,73
-0.0753,6166
0.12,2870
0.0891,2016
-0.208,7071
-0.0359,6120
0.068,2319
0.114,2644
-0.0649,7105
-0.0549,8622
0.0835,1401
0.319,1235
-0.0674,6563
0.0971,3021
-0.0872,8713
0.136,1984
-0.197,9222
-0.0543,6290
0.612,1062
-0.539,8918
0.0698,3561
0.115,2296
0.296,868
-0.285,8131
0.0316,4142
0.0451,3884
0.00682,4764
0.0351,2543
0.286,863
-0.00239,5366
1.03,161
4.16e-05,5103
-0.0292,6072
0.0633,2571
0.102,2714
0.0526,3798
0.17,1661
0.102,2228
-0.0424,7311
-0.0456,6824
-0.34,9913
-0.0887,6856
-0.0241,5684
-0.0905,5737
0.279,1015
-0.109,9401
0.201,1288
0.305,482
-0.363,8703
0.119,2278
0.00824,4651
0.208,139
0.162,355
-0.11,8866
-0.0521,7189
-0.0708,6918
-0.0576,7514
0.00946,4575
-0.181,9330
-0.127,6684
0.32,1779
0.114,1885
-0.00756,5196
-0.0632,7003
-0.487,10469
-0.288,9741
-0.0123,5677
0.0588,4002
-0.223,10353
0.046,3290
0.266,856
0.0195,4098
-0.0739,6623
-0.0418,5577
-0.121,9967
-0.104,9777
-0.197,9877
0.143,2081
0.127,2495
0.111,2617
0.0365,3015
0.0297,4088
-0.199,9602
-0.12,7521
0.599,917
0.143,2134
-0.245,10458
0.0805,1768
0.386,2031
1.05,103
0.115,2212
0.557,1032
-0.102,7889
0.0599,2470
0.669,1418
-0.0123,5614
-0.246,8851
-0.106,7965
0.0561,2597
0.0481,3612
0.00991,4748
-0.107,9978
-0.549,10333
0.261,547
-0.206,9254
-0.0818,8943
0.146,1950
-0.281,9866
-0.0742,7172
0.315,1557
0.0991,2279
-0.0963,8639
-0.0759,7218
0.363,314
0.269,537
0.0748,3897
-0.0627,7358
0.107,1704
0.871,954
2.73,154
-0.0518,6912
0.11,3017
0.309,1030
-0.0382,5671
-0.217,8217
-0.162,9711
-0.0312,6073
0.2,2063
-0.212,8944
-0.277,7511
0.514,805
0.0719,1926
-0.0768,8430
0.202,1320
0.0937,2356
0.133,1178
0.211,677
0.0692,1833
0.133,1163
-0.177,8646
-0.468,9890
-0.321,9702
-0.0962,7834
-0.0398,6440
-0.0227,5605
-0.0681,6508
-0.0347,5936
-0.2,9421
-0.0942,7069
-0.115,8067
-0.17,9303
-0.187,5962
0.177,2195
0.042,4083
0.108,2694
-0.132,9685
-0.0497,7279
-0.537,7160
0.00992,4931
-0.153,7622
0.0155,4317
-0.0657,8801
-0.0377,7314
-0.79,9132
0.106,3747
-0.269,8773
0.179,1911
-0.0903,6858
0.189,2991
0.169,3176
-0.176,3951
0.299,2487
1.54,1145
0.177,1428
0.0972,3522
-0.0775,8336
-0.00509,5358
-0.292,5982
0.214,2763
0.434,2220
-0.463,8852
0.156,2559
0.0065,5026
0.00543,4931
0.046,3876
0.0901,3015
-0.016,5444
-0.064,6748
0.18,2473
0.115,1998
-0.214,9234
-0.0155,5946
-0.12,10082
-0.157,9445
-0.047,6436
-0.0307,6318
0.0152,4372
-0.0839,6975
0.202,206
0.00596,4919
-0.226,4636
0.0544,4305
-0.0964,6216
0.167,2413
-0.163,8989
0.158,1856
-0.144,4584
-0.189,8519
-0.134,8270
-0.24,9165
0.154,183
-0.249,8865
0.949,898
-0.18,7527
-0.0356,7561
-0.0422,9556
0.275,778
0.224,983
-0.32,10072
0.0895,2438
-0.141,9370
-0.000507,5083
-0.313,10331
0.101,3352
0.296,170
-0.326,9951
-0.0339,5996
0.0089,4501
-0.0263,5503
-0.251,9741
-0.301,8513
0.0973,1515
-0.201,10338
0.0876,2845
-0.0359,6176
0.0949,2294
-0.0842,6402
0.0862,3252
-0.294,9189
0.0452,2829
-0.148,7730
0.0915,3281
0.343,196
-0.00917,5419
-0.0381,7067
0.0955,1728
-0.318,7511
-0.133,6539
-0.0998,8601
0.0502,4334
-0.0228,6174
-0.0621,5956
0.183,2151
0.115,2655
-0.14,7860
0.136,2162
0.0576,3140
-0.264,7277
-0.149,7638
-0.096,7233
0.0552,3634
0.025,3417
0.0438,3138
0.135,2011
0.179,3287
-0.0834,7183
-0.02,5391
-0.13,10094
0.221,371
-0.115,9342
0.0924,2044
-0.217,7085
-0.17,9107
0.196,732
-0.267,9786
0.152,179
-0.2,10217
-0.205,10284
0.0302,4226
0.604,45
0.203,292
0.0352,3796
-0.0367,6100
-0.151,9168
-0.137,8705
-0.279,10366
-0.168,10296
0.147,1097
0.161,1698
0.272,681
0.0309,4126
0.155,883
0.088,2602
-0.0483,7670
0.00345,4855
0.0612,3431
0.0618,2448
0.0587,3259
-0.111,9388
0.118,3080
-0.148,8784
-0.163,10333
-0.368,8597
0.166,319
0.0288,4232
0.0551,3324
0.136,3166
-0.374,10142
0.228,1275
0.32,73
-0.00474,5592
-0.0413,6336
0.216,450
0.067,3131
-0.165,8482
-0.0122,5381
0.0615,3060
0.0267,4281
0.0195,4300
-0.0317,5815
0.108,1832
0.205,1349
0.0708,1978
0.15,1409
-0.0125,5156
-0.00132,5175
0.149,2705
0.013,4514
0.135,1063
-0.255,9324
0.0807,3808
0.185,2917
-0.0562,7231
0.211,1694
-0.185,9483
-0.231,9573
-0.225,8751
-0.0625,5824
-0.143,9108
-0.149,9979
-0.189,10140
-0.265,10006
0.117,1469
0.108,1469
-0.0604,7414
-0.109,8280
0.388,77
-0.723,8162
0.0407,3849
0.161,1412
0.142,990
-0.00718,5205
-0.104,7574
0.0759,2817
0.165,483
0.016,4576
0.162,1513
-0.0509,8384
-0.0628,9264
0.056,3528
-0.391,10450
-0.0687,7140
-0.165,7717
-0.0159,5789
-0.0144,5272
0.068,3471
-0.0655,6560
0.153,1039
0.0659,3350
0.0938,1991
-0.122,8572
-0.0749,6757
0.0953,3134
0.0181,4577
0.0523,3864
-0.0648,6026
-0.0371,7019
-0.0525,5794
-0.187,5219
0.117,1961
0.095,2433
0.000485,5028
-0.0732,9389
0.0438,4086
0.068,2246
0.0487,3911
0.154,791
0.14,780
-0.102,8513
0.161,1426
0.279,1865
0.0606,2563
0.206,1843
0.115,1382
0.0877,1125
0.19,1191
0.00409,4756
-0.155,7996
-0.0777,8386
0.27,1150
0.0197,4471
0.163,1617
-0.161,9339
-0.209,7186
0.195,1854
0.174,684
0.0597,3177
-0.11,8026
-0.137,8298
-0.125,7010
-0.277,10034
0.152,727
0.128,707
-0.489,10422
0.0631,3657
-0.0733,7424
0.0081,4828
-0.0268,7173
-0.0291,6102
0.0367,3670
-0.0804,7199
-0.0855,7166
-0.448,10446
-0.202,10231
-0.0371,6332
0.331,163
0.0515,3381
0.24,2158
-0.22,7155
0.00897,4537
-0.0427,7067
0.0921,2233
-0.16,9359
0.157,2457
0.3,128
0.0288,4036
-0.0249,6989
0.178,2210
0.159,1567
0.352,967
0.104,1811
-0.0479,6686
-0.0249,5879
-0.0577,6519
-0.198,9963
0.453,287
0.447,1132
-0.0982,8039
0.153,1046
-0.142,7553
0.0814,2302
-0.295,10329
0.0978,2449
0.0233,3979
-0.0851,8745
0.438,42
0.133,930
-0.0282,5772
0.114,2227
0.0438,3318
0.054,3246
-0.0044,5411
0.177,559
0.159,2084
-0.0194,5899
-0.0713,7003
0.00954,4736
0.129,1377
0.121,3432
-0.201,8569
0.0374,2780
0.00496,4840
0.000302,5085
-0.199,9473
-0.0633,5296
-0.144,8390
-0.0428,7568
-0.00459,5167
0.0943,2596
0.14,907
0.0193,4488
0.0357,4645
-0.161,9799
0.237,1027
-0.0533,6853
0.0822,3430
-0.0678,6125
0.141,3341
-0.0177,6421
-0.166,10054
-0.0466,6185
-0.0276,5957
-0.397,10215
0.00884,4750
0.033,3643
-0.0615,7387
0.0292,4498
-0.44,10462
0.124,2680
0.331,1793
-0.109,7408
0.00763,4787
-0.341,8947
-0.0279,5860
0.0362,4234
-0.0745,5399
0.114,3049
-0.342,10289
0.573,760
-0.256,10310
0.018,4729
-0.141,7680
0.0244,4054
0.565,116
0.182,1017
-0.176,9019
-0.279,10078
-0.149,8000
-0.247,9761
-0.00977,4946
-0.288,9375
-0.169,8923
-0.168,8251
-0.102,6904
0.0173,4308
0.0395,3449
-0.135,9585
-0.288,9969
0.106,1181
-0.0571,6366
-0.103,6559
-0.0251,6140
0.137,3262
0.383,343
-0.154,8617
0.151,2289
0.0562,2135
0.0926,1366
0.14,1769
0.199,590
0.745,208
-0.37,10070
-0.063,6661
-0.0562,8205
-0.158,9581
0.21,1678
0.181,2164
0.184,1690
0.0886,1981
-0.0237,6659
-0.0369,6122
0.113,1685
-0.0399,5921
0.154,930
0.404,76
0.00776,4896
-0.0275,5375
-0.349,8511
-0.244,7975
-0.153,9554
-0.0176,6364
-0.0314,5437
-0.0359,5753
-0.125,7285
-0.956,10423
-0.0173,6351
0.0676,2939
0.0261,4531
-0.21,10132
-0.022,5273
-0.26,9975
0.0276,4067
0.0412,3304
-0.118,8303
0.126,2036
-0.218,9107
-0.0788,6331
0.107,2116
0.24,711
0.469,2357
-0.249,10435
-0.087,8202
-0.0224,5502
0.0119,4436
0.0381,2919
-0.17,8857
0.0839,3475
-0.27,7476
-0.0706,7898
-0.129,7806
0.156,1712
0.0264,4446
-0.1,8365
0.245,445
0.061,3580
0.0126,4640
-0.0605,7360
-1.13,10085
-0.0223,5748
-0.0732,7932
-0.268,8822
0.00919,4821
0.0288,3399
0.172,3411
0.226,329
0.124,2951
0.186,873
-0.0853,8557
0.0663,3253
-0.286,10083
-0.0228,5374
0.0519,2574
-0.0287,6953
-0.216,9664
-0.0932,6117
0.305,1647
0.03,4150
0.234,1859
-0.176,8983
0.026,4078
0.0892,1576
0.0412,3417
-0.0596,6723
0.0619,3189
0.0268,2648
0.0445,3378
0.292,1347
-0.0651,6230
2.18,527
-0.206,9367
0.203,1093
-0.0889,6053
0.0916,2755
0.13,2749
0.27,1361
-0.61,10456
0.15,1157
-0.394,9032
-0.0212,5881
0.271,1120
-0.0691,6661
0.113,3479
-0.125,8550
-0.138,9864
-0.0228,5903
-0.329,10441
0.2,331
0.0166,4599
0.0455,3784
0.0338,3908
-0.23,10262
0.0415,3968
0.405,93
0.268,1097
1.4,684
-0.136,7948
-0.195,9657
0.0712,3087
-0.197,9428
-0.16,7717
0.0164,4460
-0.00953,5669
0.0367,467
-0.0376,5999
0.0169,4457
0.145,2514
0.317,190
0.102,2274
0.0258,4079
0.0817,1679
0.0389,3439
0.222,1472
-0.137,8399
-0.17,10365
-0.318,10372
0.0809,2405
0.21,493
0.349,169
-0.3,10280
-0.0329,7921
0.135,457
-0.287,10392
-0.000529,5191
-0.122,9163
0.224,1063
-0.0474,6389
-0.0156,5641
0.22,1577
-0.348,10416
-0.0746,8089
-0.316,10392
-0.0394,6450
0.0485,3814
-0.0814,7303
0.0475,3901
0.0438,3772
-0.141,9409
-0.00199,4559
-0.0224,4435
-0.176,8317
-0.0716,7728
-0.09,8468
0.0949,932
0.123,3497
-0.219,8565
0.283,1924
-0.0774,6722
-0.133,9609
0.374,17
0.0125,4251
-0.0999,8712
-0.103,7826
0.066,3473
-0.0889,8509
0.0327,3103
0.389,511
-0.198,9354
-0.0198,5634
0.156,2957
0.0342,3963
-0.164,9561
0.184,1320
0.116,2652
-0.00515,4938
0.0297,3764
0.247,120
-0.0751,7471
-0.0989,8530
0.237,1403
0.195,1153
0.0204,4479
0.0147,4790
-0.0119,5518
-0.0442,6257
-0.196,8996
0.0245,4368
0.0333,3580
0.173,527
0.309,145
-0.226,9838
-0.191,7398
0.0772,2553
-0.104,7338
0.272,471
-0.0592,7816
0.0436,2983
0.0791,2870
-0.155,8973
-0.109,9472
-0.204,8316
0.122,1022
-0.078,7390
0.21,775
-0.0713,7186
0.254,252
-0.383,9762
0.0704,2612
-0.0276,5117
0.215,531
-0.122,8500
-0.113,9544
0.169,293
0.037,3965
0.189,858
0.199,870
-0.0033,5427
0.138,2261
0.0146,4307
0.466,125
0.0724,2927
0.174,1071
0.301,1378
0.0667,3507
-0.0642,6562
0.132,1879
0.111,2291
-0.291,6935
-0.00675,5346
-0.035,7021
0.188,1489
0.00378,5003
-0.0656,7823
-0.119,8632
-0.154,9672
-0.17,8264
0.136,1119
-0.219,10203
-0.512,10194
-0.416,10014
-0.089,8156
0.0817,2404
0.0562,3534
0.0835,2859
-0.0275,5942
0.0813,3303
-0.0511,6169
-0.00301,5197
-0.0867,8947
-0.0644,6028
-0.00964,4986
-0.0855,7386
0.1,1947
-0.0974,8387
-0.0246,5561
-0.0332,6381
0.213,902
-0.195,9298
-0.113,7718
-0.0116,5863
0.0595,3076
0.17,1831
0.13,1181
-0.371,10113
0.336,742
-0.0143,5584
-0.11,8622
0.26,2507
-0.11,7137
0.21,1590
-0.137,9400
0.0629,3740
0.0165,4460
-0.0244,5759
-0.124,8690
-0.22,9947
0.0524,3765
-0.0057,5234
0.0339,3570
0.0309,3975
0.203,2011
0.16,2649
0.0365,3772
-0.0596,7688
0.119,1747
0.339,51
0.169,1789
-0.067,7416
-0.195,9611
-0.198,9767
-0.0732,8174
-0.235,8517
-0.124,7624
0.015,4371
-0.152,7248
0.0521,3000
0.11,1382
0.0581,3443
0.0887,2522
-0.108,8951
-0.308,10451
-0.121,9033
-0.0346,6275
0.0916,2184
0.119,2609
0.385,931
-0.127,9881
-0.427,10013
-0.0563,7295
0.318,143
-0.16,8532
-0.00407,4964
-0.252,8607
-0.14,8802
0.0597,2844
0.202,2823
0.2,1069
0.11,1347
-0.113,8476
0.034,3030
0.0857,1113
-0.222,9374
-0.205,8233
-0.0125,5351
-0.0566,6203
0.14,978
-0.107,9383
0.0208,4386
-0.0108,5246
0.242,2063
0.124,2288
0.0548,3657
-0.0369,6817
-0.154,8416
0.0226,4350
-0.26,8098
0.0159,4503
-0.113,9823
-0.12,8937
0.0761,2246
-0.00418,4930
-0.00397,5475
0.118,1473
0.0801,2445
-0.235,10216
-0.158,9230
-0.199,7596
-0.544,10413
0.0272,4034
0.0966,900
0.0558,3798
-0.00213,5475
0.428,187
0.125,1660
0.223,259
0.172,1356
-0.0503,7286
0.406,1495
-0.0219,5427
-0.011,5357
0.185,2384
0.114,2185
-0.0269,5455
0.0305,4264
-0.0162,6336
0.0433,3664
0.241,1747
0.0556,2101
0.0372,2634
-0.0454,6215
0.418,843
0.00482,4868
0.0667,3132
-0.092,8374
-0.0748,7888
-0.134,9092
0.0213,4502
0.365,1796
-0.277,9422
-0.101,7443
-0.0372,6033
0.00382,5232
-0.0468,6409
0.101,2177
0.073,3213
-0.0502,7913
-0.0566,8597
0.115,3317
-0.0599,6852
-0.198,9050
0.0363,3712
0.0601,2484
0.0404,3778
-0.102,8014
0.0648,3586
0.00368,4714
0.146,3057
-0.285,10376
-0.043,8574
0.158,1421
-0.0298,6394
0.0575,3378
0.0265,4423
0.0977,2626
-0.0882,8091
0.141,2474
-0.0403,5880
0.113,2482
-0.0867,8121
0.0571,2841
0.0267,3979
-0.0117,5611
0.0135,4723
-0.0246,5756
-0.189,8790
0.0266,3931
0.0297,3598
-0.088,6729
0.0618,3733
-0.182,7678
-0.124,8866
-0.116,9325
-0.0855,8570
-0.412,10460
0.191,906
-0.0962,7825
-0.286,8334
-0.322,10259
-0.0206,5966
-0.103,8578
0.0238,4540
0.0327,3846
0.0738,509
-0.0375,7267
0.0161,4304
-0.0913,8905
0.443,561
-0.0625,6659
0.0272,3822
-0.00654,4893
-0.117,8565
0.12,2240
0.04,3538
0.0838,3023
0.644,154
0.0564,3287
0.00643,4899
-0.0581,6584
-0.0913,7289
-0.0601,5955
0.0669,3044
0.211,1288
-0.00688,5493
0.00237,5024
0.212,1179
0.223,1915
-0.193,8042
-0.0805,8129
0.0127,4646
-0.301,9811
0.101,3275
-0.0899,7527
0.077,2198
-0.279,8882
0.233,156
0.0716,2876
-0.0997,8182
-0.0041,5117
0.224,1330
0.00101,5053
-0.0551,7146
0.167,1253
-0.291,9886
-0.158,8891
0.242,1052
-0.0524,6876
0.161,1770
0.0183,4358
-0.179,9061
-0.134,9140
0.129,1792
-0.0571,8187
0.0454,3003
0.217,985
0.363,1076
0.26,763
-0.224,9710
-0.00316,5312
0.128,1138
-0.153,7372
0.0664,3402
0.0817,3258
0.117,2271
0.125,2271
-0.00536,5403
-0.129,8983
0.673,404
0.391,433
-0.118,7863
-0.00885,5345
0.0718,2636
-0.0793,7587
-0.128,6826
0.314,722
-0.0927,8268
-0.0405,6155
-0.0182,5994
0.0218,4284
-0.0588,6603
-0.0272,5535
-0.0433,6701
-0.138,9549
0.0787,1870
-0.108,7565
-0.0111,5279
0.369,649
0.0976,2984
-0.0427,7548
-0.207,10354
0.166,114
0.067,3549
0.224,1680
0.101,3096
-0.16,9869
-0.0717,6844
0.393,161
0.112,1537
-0.0662,5695
0.0702,2276
0.169,416
0.299,113
0.189,1493
0.066,2579
-0.106,6965
0.0691,3535
-0.0796,8125
-0.0678,9259
-0.000442,5175
-0.133,8882
0.0506,3405
0.212,1995
-0.0101,5639
0.106,1297
-0.218,10293
0.122,2036
-0.0586,6047
0.0652,4051
0.0959,2965
0.0143,4251
-0.211,8680
-0.101,8562
-0.0244,5472
0.087,3890
0.0326,3058
0.062,2800
-0.308,9424
0.0992,2268
0.00748,4701
0.12,1618
0.0217,3900
0.00692,4738
-0.0366,5983
-0.206,9097
0.255,1298
0.1,2633
-0.0153,6800
0.153,338
-0.0797,6727
-0.00872,5352
-0.298,7229
0.624,248
0.0104,4798
-0.0275,6020
-0.124,8670
-0.077,6738
0.0369,3792
-0.278,8436
0.0431,3319
0.0627,2420
0.171,1086
-0.0476,5772
0.185,2334
0.0778,2989
-0.214,9972
-0.219,5619
-0.0158,5410
-0.247,10039
-0.15,8983
-0.0485,6629
0.0581,2826
0.0501,3663
-0.0731,7043
0.24,600
0.169,1502
0.0642,3620
-0.126,8081
-0.00523,5310
-0.121,9665
-0.176,7203
0.844,115
-0.561,10465
-0.0365,6677
0.0833,839
-0.028,5886
-0.13,7062
-0.0648,6070
0.00102,5300
0.128,2499
0.00871,4838
-0.137,8979
-0.217,9716
0.0425,2870
0.129,905
0.0394,3301
0.0584,2498
-0.0866,7477
0.37,849
-0.233,8413
-0.0475,6059
-0.0553,5776
-0.0172,5343
-0.303,9830
0.569,252
0.0319,3736
-0.14,9033
-0.122,7116
-0.13,7984
-0.0763,6118
0.159,1631
0.0531,3513
0.361,373
-0.0488,7985
-0.107,9064
0.0925,2100
-0.159,9756
-0.0627,7851
-0.0899,8613
0.323,1640
-0.649,10158
0.583,44
0.0281,4433
-0.0333,6532
-0.104,8464
-0.154,7237
-0.236,8569
-0.375,10101
0.262,675
-0.0171,6554
0.185,998
0.0391,4178
0.0505,2950
-0.191,5889
0.118,1811
0.105,2194
0.0369,3737
-0.106,7769
0.0874,1664
-0.163,7679
-0.366,9025
-0.0503,7970
-0.0448,6537
-0.07,6691
0.451,393
0.0177,4461
0.249,2571
0.062,2305
0.125,1300
0.267,480
-0.355,10458
-0.0482,6410
0.373,1542
-0.0565,7424
-0.0791,7756
-0.313,10076
0.14,1313
-0.241,9763
0.0819,2880
-0.0724,8294
0.0504,3399
-0.194,9964
0.0137,4639
-0.0931,6680
0.0952,3736
0.23,926
0.209,1537
-0.0831,7033
0.0434,4583
-0.00444,5050
0.0858,3141
-0.0699,8410
-0.359,7500
0.52,611
-0.0264,6732
-0.165,9022
-0.0229,6107
-0.0512,7568
0.102,2566
-0.0914,6956
-0.217,9183
-0.062,6395
-0.102,9124
0.00524,4883
0.0277,4184
0.0413,3967
-0.0539,6313
-0.328,9189
0.129,1517
-0.122,9323
-0.0655,6399
0.123,2480
0.222,917
0.0758,3471
-0.0788,6633
-0.00918,5467
-0.12,7641
0.00316,4706
0.174,1976
0.0947,3382
-0.101,7718
0.0215,3664
0.0615,3763
-0.0225,5807
0.232,1346
0.235,839
0.156,853
0.357,233
0.201,1081
-0.287,9824
0.0833,3220
0.0393,3634
0.0116,4391
-0.0824,8000
-0.0694,7172
-0.109,9712
-0.154,8548
-0.202,10356
-0.105,8711
0.106,1999
-0.0112,5169
-0.116,8263
0.378,1204
-0.0411,6037
0.174,765
-0.0662,7074
0.0701,2655
-0.076,7514
-0.18,7824
0.089,2436
-0.0416,7576
-0.0879,8201
0.0891,2282
0.12,1847
0.0383,3593
0.196,2135
0.173,134
-0.15,9002
0.197,2892
-0.000845,5060
-0.00198,4894
0.313,1498
0.138,606
0.079,3067
-0.00214,4862
-0.191,8187
0.0627,3731
0.0972,2811
-0.142,8309
0.00792,4869
0.0966,2506
-0.0202,5610
-0.112,5843
0.0165,4455
-0.0638,8403
-0.1,8731
-0.281,10377
0.0534,3832
0.162,2241
0.294,2099
-0.0729,8997
-0.0209,5609
0.105,2980
0.0542,3751
-0.0923,9016
-0.174,9964
0.182,640
-0.0147,5652
-0.1,8269
-0.082,7821
-0.176,7474
0.161,1486
0.0459,4138
0.0705,3815
-0.445,7772
0.0178,4799
0.0671,2948
-0.0486,6329
-0.131,8148
0.742,192
0.0742,832
-0.105,7916
0.175,863
-0.0152,6705
0.139,2218
-0.0839,8101
0.233,1550
-0.163,9139
0.029,2964
-0.0773,7654
-0.143,8751
0.181,2652
-0.0782,6130
-0.13,8731
0.0169,4548
0.00602,4974
-1.26,10216
-0.073,6692
-0.322,9502
0.196,1218
-0.109,9316
-0.0848,8899
3.22,72
-0.0903,6285
-0.067,6912
-0.217,9732
0.0987,844
0.181,341
-0.0684,7388
-0.0104,5447
0.18,873
0.0471,2809
0.118,1702
-0.000897,5093
-0.137,7875
0.0894,2158
0.172,1918
-0.0263,5438
-0.168,9126
-0.0167,6281
0.188,842
0.0964,699
-0.155,7492
0.228,1175
0.101,959
0.0345,3346
-0.0408,6378
0.111,2831
0.268,1654
-0.0643,6974
0.0765,2980
0.145,465
0.162,1352
-0.0504,6597
-0.0967,7787
-0.0585,7082
0.0381,3629
0.171,952
0.0421,3745
0.0883,2552
0.023,4166
0.119,3055
-0.0797,9375
-0.0388,6402
-0.0725,7286
0.0119,4572
-0.267,10222
-0.364,9858
0.0369,3518
0.0105,4578
0.239,1075
-0.195,10069
-0.127,8792
-0.012,5604
-0.00756,5089
0.198,329
0.491,718
-0.032,6245
0.197,1059
0.11,2990
-0.146,8784
0.027,4105
0.102,2543
-0.00459,5425
-0.0618,5705
-0.00631,5319
-0.163,9409
0.137,1450
-0.0663,6762
0.192,1406
-0.138,7913
-0.144,8670
-0.0818,8030
-0.0181,5134
0.344,296
-0.189,8726
-0.179,9863
-0.0988,8242
0.0077,4836
-0.214,9382
0.163,1827
-0.243,8378
0.015,4402
-0.0602,6904
0.228,1120
0.136,2423
-0.161,9694
0.284,705
0.199,2137
-0.111,10021
0.178,1529
-0.055,6220
0.0592,3753
-0.0838,6896
-0.0133,5558
0.011,4440
0.0101,4838
-0.144,8329
-0.107,7420
0.205,949
-0.1,8267
-0.0887,7219
0.129,2124
0.0206,4474
-0.0379,5602
0.159,1481
-0.144,8961
0.221,1321
-0.0786,6781
-0.0681,6817
-0.0993,7447
0.319,661
0.0746,3332
-0.141,9649
-0.00243,5136
0.117,1541
-0.0722,7188
-0.106,9405
0.127,778
0.111,1060
-0.14,9658
-0.0194,5844
-0.00763,5266
0.029,3445
0.222,965
0.00171,4993
0.0369,3124
-0.129,8278
0.102,3343
-0.252,8852
-0.0132,5232
-0.107,8125
0.0308,2626
0.261,474
0.0235,4386
-0.0243,6023
0.92,2
0.0272,4439
0.00585,5056
0.0675,3106
0.114,1985
-0.046,5801
0.142,1614
0.0625,2129
-0.0351,5951
-0.103,7871
0.0556,3710
-0.0889,8976
-0.218,8674
0.0974,769
-0.00711,5541
0.313,953
0.13,2726
-0.335,9694
-0.117,6409
-0.11,8756
-0.215,9866
-0.231,9073
0.0964,2373
-0.339,10318
0.0636,3513
0.0205,4023
-0.0648,7670
-0.0198,5687
0.14,1064
-0.389,10161
0.0424,4393
0.00272,5097
-0.145,9785
-0.121,8592
0.146,1685
-0.352,10237
-0.0925,8995
-0.0293,6107
0.195,1122
-0.135,8853
-0.0566,7076
-0.127,8478
0.488,1514
0.152,572
-0.0857,7999
0.564,2036
-0.332,8350
0.129,1950
0.353,833
-0.238,9815
-0.0767,7868
0.434,657
-0.219,9265
-0.0776,8031
-0.0196,5483
-0.0105,5464
-0.00777,5804
0.0753,3127
-0.0712,6060
0.051,3898
-0.253,10070
0.0754,1718
-0.0791,7834
0.215,2383
0.304,828
0.0325,4181
0.0404,3839
-0.149,9604
-0.292,9963
0.11,2744
-0.125,8309
-0.202,7087
0.0397,3874
-0.18,7667
0.0746,2004
-0.0934,8361
-0.0588,6303
-0.0178,5555
0.113,1998
0.0413,3168
0.0491,3861
-0.0741,7513
0.193,1536
0.0571,3946
-0.177,8743
-0.281,10376
0.00919,4678
0.124,2589
0.0226,4417
-0.168,10096
0.114,1658
0.0795,2183
0.0725,2788
0.146,663
0.116,1461
-0.11,9799
0.0557,2745
-0.0581,7698
0.0251,3942
0.102,1129
0.104,3102
-0.0761,9324
0.259,684
-0.00514,5288
-0.284,10004
-0.0736,6967
0.247,740
0.0786,2347
0.232,256
-0.0607,7903
-0.0375,7165
-0.192,9313
-0.0498,6775
-0.149,7647
-0.327,9198
0.0475,2446
-0.0553,8295
0.0225,4301
0.298,483
-0.168,9955
0.0251,4403
0.0439,3112
-0.0259,5838
-0.248,7158
0.0612,4293
-0.038,6232
-0.303,9011
-0.27,9540
-0.0501,6721
0.206,3493
-0.642,8342
-0.0271,5137
-0.278,6847
-0.449,10441
0.0941,3135
-0.118,7358
0.0294,4354
-0.0438,7121
-0.0829,7900
0.0519,3694
-0.305,10401
-0.0244,5187
-0.243,9737
0.111,1049
-0.0433,6362
-0.0265,6053
-0.0974,8485
-0.239,9323
0.189,889
-0.00611,5841
0.224,443
-0.0296,5722
0.0529,4091
0.0566,3036
0.000581,5126
0.134,2169
0.188,2081
-0.153,8907
0.127,2979
-0.487,10258
0.0709,390
-0.0888,9902
-0.018,5611
0.0629,3637
-0.188,9782
-0.0647,6468
-0.0429,5870
0.0977,1560
0.0487,3484
0.00449,4893
0.00367,4995
-0.0315,5691
-0.202,10310
-0.00771,5584
0.0945,1653
0.0219,4507
0.0337,4337
0.00808,4759
-0.0609,5992
0.0931,2927
-0.00379,5281
0.176,1185
0.292,1359
0.12,1559
0.0366,3863
0.254,213
-0.00839,5590
0.0475,3442
-0.415,10397
-0.00719,5227
-0.016,5258
0.12,1671
-0.0757,9176
-0.0977,8557
0.121,1410
0.176,2268
-0.077,5577
0.232,100
-0.188,9594
-0.142,8890
-0.0432,6549
0.118,2242
-0.0515,7789
0.281,1545
0.156,1241
-0.147,8846
-0.138,8803
0.952,129
-0.103,7650
-0.202,10418
0.0532,2315
-0.0301,5505
-0.0568,6520
0.0638,3421
0.0524,2425
-0.0478,6878
-0.0825,8661
0.0531,3079
-0.114,8313
-0.141,8608
-0.0228,5452
-0.0587,6480
-0.0442,6853
0.039,4012
0.0451,3382
-0.0773,5779
0.324,1342
0.109,1729
0.0745,2081
0.104,2311
0.0617,2741
0.0212,4549
-0.112,7845
0.489,332
0.0725,2283
0.2,764
0.274,689
-0.0588,6702
0.143,2510
0.0177,4628
0.156,1358
0.0517,3742
0.0419,4145
0.163,2471
0.00238,4761
0.0246,3545
-0.00116,4701
0.0284,4395
-0.117,8734
-0.0134,5129
0.124,3369
-0.026,6493
-0.0448,7388
-0.209,9116
-0.243,8504
0.0158,4603
-0.473,9894
0.063,2909
-0.0307,6222
-0.177,9302
0.0343,3764
-0.347,10064
-0.116,8721
-0.0785,6778
-0.0803,7072
-0.107,7679
-0.143,8120
-0.195,9450
0.106,1418
0.254,580
0.0225,4705
-0.107,8180
-0.06,5901
0.015,4698
-0.0905,7398
0.115,3111
0.0232,4000
0.19,279
0.0705,2053
-0.101,6579
0.0942,3399
0.158,791
-0.0098,5545
0.827,117
0.0186,4332
-0.108,7808
0.222,897
0.234,1475
0.0245,2642
0.054,3188
-0.406,10357
0.378,860
0.00646,4595
0.0681,2863
0.0206,2802
0.137,1054
-0.369,10437
0.00356,5012
-0.309,10455
0.124,1500
0.0805,2656
-0.335,9423
0.151,1256
0.263,720
-0.0762,7156
0.0614,3816
-0.0364,7041
-0.114,8282
-0.11,7695
-0.0036,5234
-0.0565,6118
-0.0679,6709
-0.22,10221
0.189,899
-0.0373,6002
-0.333,8964
-0.166,9508
-0.049,8298
0.0398,2679
0.0836,3477
0.135,1958
-0.0468,7005
0.052,3368
-0.0739,8733
0.00857,4869
-0.176,9212
-0.00263,5103
-0.14,8411
-0.0702,6856
0.33,1321
0.0756,1908
-0.276,10255
0.395,460
0.374,1604
0.112,2454
-0.0494,6669
-0.0575,8061
0.0447,3709
0.11,1660
-0.186,8639
0.297,273
0.115,1256
-0.129,9343
0.455,2083
-0.0053,5195
0.145,1249
-0.0557,5994
-0.0726,8185
0.0946,1733
0.0713,3108
-0.0771,6482
0.381,142
-0.0601,6940
0.0208,4403
0.0673,2253
0.232,1690
0.236,1425
-0.0268,5859
-1.25,10349
-1.82e-05,5331
0.0174,4447
0.0328,4127
0.138,1666
-0.4,10399
-0.0804,5859
-0.169,8925
-0.0897,7859
0.0994,1410
0.161,1088
-0.0035,5109
0.0582,2049
0.177,1124
-0.076,6790
0.0259,4225
-0.182,9728
-0.0794,6384
0.0774,2911
-0.025,6333
-0.0108,5586
-0.0533,6513
0.169,645
0.205,1970
-0.13,6767
0.199,630
0.275,1074
-0.0854,7091
-0.15,7522
-0.108,7709
-0.0905,9588
-0.00931,5751
-0.0695,8303
-0.19,9935
0.718,46
-0.0159,5793
0.155,2654
0.0487,3352
-0.0792,7571
-0.0745,8199
-0.272,9383
0.0813,2530
0.202,809
-0.312,9809
-0.206,9328
-0.072,7583
-0.18,6759
-0.00316,5177
-0.0128,4049
-0.235,10413
-0.0558,8333
0.0653,3576
0.0417,3817
0.232,1550
-0.021,3644
-0.0796,9355
-0.269,7449
0.238,317
0.161,735
1.29,1236
0.22,2368
0.0966,1601
-0.0105,5133
0.195,748
0.182,559
0.041,3210
-0.0347,5910
-0.1,8292
0.0123,4253
0.0275,4342
0.186,1591
0.748,1549
-0.264,8885
0.159,275
0.0653,1921
-0.00212,4700
-0.195,8101
0.0322,4068
-0.000147,5046
0.11,1446
-0.117,9339
-0.0112,5711
0.155,1954
-0.0899,5652
-0.0806,6289
-0.0164,6021
-0.00453,5468
-0.397,9880
0.0565,3613
-0.118,8273
-0.262,9935
0.104,1430
-0.0745,7433
0.0769,3163
-0.0652,7594
0.0231,4006
0.0313,3919
-0.0713,8063
-0.0991,7369
-0.465,10419
0.0419,3239
-0.0596,7360
-0.0244,5686
0.0338,4311
-0.082,6589
0.223,684
0.091,1897
-0.1,9343
-0.0853,6637
0.0281,4048
-0.0962,7842
-0.0777,6978
0.234,2397
-0.0171,5593
-0.0637,6553
-0.0765,7700
-0.0589,6485
0.0287,4466
0.0313,3760
-0.0106,5427
0.303,1088
0.148,1730
0.0215,4323
0.133,2895
-0.078,8381
-0.0484,6618
-0.502,8420
-0.0254,5765
0.128,2764
-0.0679,7105
0.00087,5116
-0.111,9177
-0.0199,5225
-0.0853,7142
0.0646,2860
-0.143,8243
-0.0241,5842
0.272,415
-0.472,10439
0.301,358
-0.00112,5235
-0.0061,5279
0.0843,3064
0.00136,5037
0.0635,3212
0.0996,2202
0.232,899
-0.273,10474
-0.0939,7274
0.0944,1186
0.0541,4224
0.258,1885
0.452,1201
0.528,69
-0.0548,7458
0.0962,1552
0.0744,2001
-0.241,10244
-0.0332,5804
-0.039,6452
-0.0215,6565
0.0667,3440
-0.107,7504
0.256,1608
0.285,1289
0.0176,4528
-0.0426,5848
-0.0529,6817
0.245,361
0.0327,3885
-0.0372,6634
0.0121,4706
0.0841,2693
0.14,1726
-0.0913,7015
-0.225,8918
0.0499,3158
-0.0239,5784
0.0887,2208
-0.139,8195
-0.0682,6580
-0.189,9031
-0.0829,6011
-0.0571,7809
0.151,1727
0.161,1196
-0.19,8996
-0.23,10342
-0.0479,8426
0.00517,4950
-0.0332,6297
-0.0378,6665
-0.218,10168
-0.0969,7376
0.0209,3752
0.151,1147
0.124,2438
-0.12,7218
-0.0301,5880
0.0382,4282
0.208,330
-0.0915,6894
0.091,2462
-0.0657,7581
-0.102,7142
-0.0296,5293
-0.052,7750
-0.13,8114
0.0274,4420
0.217,1683
0.242,2077
0.0912,3238
-0.0646,7319
0.051,3978
0.00672,4785
-0.0693,7212
0.0705,3691
0.233,1297
-0.00351,5020
-0.164,10254
0.109,1202
0.116,1998
-0.15,9124
0.228,1594
0.0346,3470
-0.0631,7801
0.449,68
-0.104,7258
0.121,3522
0.465,394
0.0873,2084
0.0245,4187
0.337,882
0.00191,4879
-0.0377,5965
-0.135,10300
0.129,921
0.0671,3389
-0.186,8323
-0.00459,5266
0.0195,4496
0.108,1451
0.129,2370
-0.0312,6272
0.141,505
0.00716,4637
0.0735,4071
0.764,74
0.048,3016
0.0751,2498
-0.0901,7860
0.152,2238
-0.121,7688
0.0701,4058
0.0242,4141
-0.0592,8739
-0.27,8974
0.00141,4900
0.23,615
-0.0888,8096
-0.216,9457
-0.066,7706
0.0635,3257
0.583,61
0.0207,4532
0.149,1498
0.22,1902
-0.0352,6309
0.015,4563
0.13,973
0.0859,2755
0.18,2178
-0.0641,8094
0.0605,2940
0.0232,4326
-0.175,8834
-0.00664,5350
0.43,831
-0.119,8822
-0.033,5996
-0.0639,6708
0.0406,3545
0.172,2147
0.0646,2832
0.223,358
-0.146,9760
-0.879,9970
0.0547,3876
0.144,2048
0.334,827
0.298,883
0.125,1628
-0.182,8490
-0.487,7974
-0.0877,8232
0.0139,4403
0.0773,1158
-0.16,9309
0.00628,4605
-0.42,10406
0.00747,4555
0.13,1611
-0.167,9997
-0.0745,6894
-0.326,8884
-0.222,8647
-0.168,7686
0.127,1143
-0.0522,7899
-0.0592,6719
-0.0172,5430
0.0293,4282
0.0961,3009
-0.187,9592
-0.0902,9882
-0.0491,6178
-0.125,8361
0.0683,2663
0.0318,4503
-0.136,8432
-0.102,9133
-0.116,8324
-0.0596,6142
0.0758,3332
1.18,1318
-0.0426,6709
-0.0481,7964
0.0965,2362
0.395,71
-0.0187,5901
-0.0472,7221
-0.0966,8025
0.0981,1376
0.0149,4662
0.212,1112
-0.226,9298
-0.342,10370
0.0864,2971
-0.0388,7757
-0.123,8897
-0.28,9734
-0.0875,7357
0.11,2983
-0.129,9877
-0.0406,6649
-0.0381,6480
-0.159,9231
-0.0688,7027
-0.0312,6781
-0.0176,5844
0.0401,3626
0.21,170
-0.0274,5810
-0.0268,6120
0.845,68
0.0296,4349
-0.101,9879
0.0891,2591
0.113,2096
-0.34,9978
0.138,2059
-0.086,7378
-0.101,8696
-0.00601,5243
0.215,1609
0.0373,3650
0.0969,3015
0.166,2388
-0.0701,7982
-0.233,9955
0.0977,3395
-0.0388,6938
-0.224,9272
0.259,599
0.439,370
-0.266,9959
0.0581,3483
-0.0064,5474
-0.116,8302
-0.134,7893
0.0218,4470
-0.0156,5255
-0.188,6812
0.0142,4690
-0.066,8485
-0.055,7531
-0.00625,5291
0.0059,4598
0.146,3031
-0.0916,8544
-0.0462,7551
0.0445,3685
-0.168,9536
-0.0948,5125
0.319,1048
0.101,2961
0.0446,3562
-0.0263,5984
0.0654,2880
-0.0897,7862
0.0466,3849
0.0624,3483
0.217,1446
0.0475,2756
0.0828,2136
-0.257,9364
-0.000922,5095
-0.0518,6763
-0.203,10222
0.0815,2924
-0.36,10474
0.107,1151
0.126,1894
0.0279,3780
0.00544,4848
0.0264,4370
0.0976,2607
-0.0934,6076
0.0217,4372
0.301,251
-0.126,8720
-0.243,9630
-0.0167,5691
0.0186,4375
-0.193,7520
-0.098,8501
0.00698,4959
0.0294,4251
0.208,293
0.0948,2437
0.341,551
0.0226,3683
0.122,1712
0.357,1671
0.36,1756
-0.0758,9029
0.141,1221
-0.0353,6188
0.0183,4256
-0.035,6434
-0.0502,7074
-0.0315,5944
-0.235,8851
0.07,2919
0.0701,1369
-0.211,9114
-0.184,8937
-0.316,9947
-0.0769,6667
0.0476,3666
-0.0943,7759
-0.302,9622
0.0791,2868
0.151,2793
-0.0521,6096
-0.189,8815
0.0766,2874
-0.0973,7781
-0.536,10458
1.1,178
0.615,815
0.133,1108
-0.17,8011
1.52,903
-0.704,9911
0.175,2873
-0.0587,6430
0.0297,4382
0.00858,4639
0.0239,4039
0.192,1691
-0.251,10363
-0.0333,5934
-0.0349,6869
0.00739,4521
0.0374,3520
-0.111,9171
0.0207,4324
-0.195,8238
0.0272,3185
-0.0377,7740
0.134,1102
-0.167,7601
-0.0391,6139
0.136,2305
-0.0955,8459
0.0469,2523
-0.147,8465
-0.0267,6596
-0.0649,8332
0.135,2693
-0.0228,6138
-0.0427,7051
-0.0853,8262
0.0229,4396
0.177,2449
-0.112,8096
-0.0492,6984
6.33e-05,5071
0.192,1394
0.00256,4993
-0.305,8951
-0.011,5168
-0.23,10361
0.0615,3616
-0.0732,8386
-0.117,7630
-0.0118,5124
-0.0777,8802
-0.224,9564
0.0711,3371
0.0987,3084
-0.0315,6115
0.0501,3967
-0.0137,5236
0.138,621
-0.0861,8326
-0.218,9823
0.0686,3674
-0.0076,4894
0.0234,4582
0.0322,3476
0.0463,2628
-0.316,9455
-0.146,6536
-0.342,9997
0.0912,2963
0.248,694
-0.202,8084
0.14,1536
0.0176,4449
0.0613,2918
0.11,3030
0.299,933
0.244,315
-0.0766,7624
0.0636,3205
-0.18,8996
-0.158,6715
0.137,1177
-0.12,8463
0.0695,1792
-0.0422,5894
-0.563,10182
-0.114,8906
0.107,2603
-0.115,9186
0.144,3261
-0.166,8635
0.158,1082
-0.0743,6729
-0.103,9801
-0.0679,7784
0.104,1929
-0.023,6167
