coef,rank
-0.354,7644
-0.166,8035
0.191,1538
0.208,2381
-0.503,9612
0.172,1237
-0.0711,7934
-0.0249,5468
0.24,920
0.0188,4541
-0.0568,7232
-0.144,10021
0.0147,4646
0.174,1605
0.266,1622
-0.36,7718
-0.121,10200
-0.000959,5069
-0.107,8443
-0.0487,6685
-0.0472,6127
0.131,3248
-0.172,9478
-0.0946,7841
-0.323,9295
-0.109,7363
-0.00877,5469
-0.241,5484
0.354,471
0.307,70
0.22,733
-0.0617,5786
-0.0256,5659
-0.385,9876
0.0513,3092
0.082,1563
-0.22,10265
-0.469,10426
-0.0279,5818
0.216,769
-0.0451,6786
0.0216,3886
-0.143,8246
-0.031,6419
0.0785,3106
0.499,56
-0.0716,8926
-0.0217,6571
0.14,2246
-0.0284,5999
0.0559,3266
-0.279,9906
0.00119,5089
0.0136,4378
-0.00261,5434
0.0402,4100
-0.472,9717
-0.0533,6231
0.0385,3073
-0.0904,8648
0.484,108
-0.0686,6890
-0.0343,6732
-0.0519,8179
-0.0713,7895
0.0928,1646
0.0575,2901
-0.128,9391
-0.215,9894
-0.513,9195
-0.0677,8094
-0.135,9341
-0.121,8244
0.192,1327
-0.324,10153
-0.0228,6026
-0.112,9035
0.133,1149
-0.127,9665
-0.21,10198
-0.323,8280
0.102,2883
0.047,2932
0.0152,4324
0.0302,4086
-0.188,8551
-0.127,9105
-0.243,8599
0.0524,2359
0.039,2975
0.0739,3430
-0.0917,7520
0.00693,4962
-0.0256,5712
0.268,673
0.0841,1803
-0.214,8744
0.0629,2457
0.0671,2898
-0.135,8700
-0.0943,8905
0.336,44
0.105,1732
-0.277,9824
-0.296,9430
0.221,1358
-0.00383,4943
0.0739,3227
0.0494,3589
0.147,1861
0.417,1062
-0.157,8434
0.0783,1733
0.0384,2926
0.303,291
-0.0376,6401
-0.102,8985
0.19,1271
-0.0979,7835
-0.00675,5285
-0.0315,6895
0.0908,1519
0.273,1258
0.245,2120
-0.0763,8390
0.0771,3633
-0.193,8318
-0.0503,6323
-0.0827,7166
0.0705,3062
-0.0411,6886
-0.0928,8268
0.465,142
0.251,202
-0.187,4764
-0.092,6399
-0.0822,8281
-0.117,8932
-0.0235,4946
-0.0271,6538
0.443,126
-0.326,10344
0.0644,3048
0.148,896
0.0412,4001
0.298,586
0.0328,3625
-0.302,10003
0.0886,2478
0.0111,4582
0.134,3351
0.237,688
0.271,1324
-0.203,9804
-0.148,8911
0.107,1973
-0.112,7129
0.164,1070
-0.0154,5334
0.0484,3607
-0.0565,6548
-0.0278,6801
-0.0312,6008
-0.318,10340
0.076,2290
0.053,3016
-0.171,9432
0.0814,2112
0.0752,2918
-0.161,7536
0.206,405
-0.0246,6318
-0.0043,5509
0.109,1824
0.0282,3737
-0.0312,5576
-0.372,9725
-0.0432,7857
-0.031,6282
-0.038,5997
0.0124,4682
-0.0109,5704
-0.0211,6356
0.0278,2904
-0.0164,5831
0.233,137
0.084,2946
-0.206,10290
-0.519,10204
0.0382,3711
0.0515,3142
0.0634,1333
0.0142,4517
-0.0782,6904
-0.119,6958
0.02,4310
-0.0154,5551
0.21,1795
0.0428,2948
-0.321,10106
-0.0347,5836
0.208,1752
-0.00472,5245
-0.217,9599
0.254,722
-0.368,10282
-0.0258,5716
0.0482,3783
-0.115,9213
-0.174,10238
0.0328,3942
0.0925,3019
-0.114,7691
-0.264,10103
0.00344,4722
-0.101,8973
-0.164,9440
-0.0753,7187
-0.0351,5506
-0.0596,3576
0.0123,4780
-0.161,10217
0.00821,4683
0.112,2695
-0.0702,6028
0.072,3241
-0.137,9290
-0.0412,7053
0.021,3940
0.00285,4743
0.088,2528
0.131,2565
-0.377,10311
0.0408,2627
0.411,58
0.133,1976
-0.2,6953
0.227,724
-0.151,7991
-0.24,7936
0.156,2805
0.0371,3665
-0.0125,5753
0.134,1338
0.123,1442
0.0851,2495
0.112,2829
-0.0552,7116
-0.403,10449
0.118,1379
-0.0393,7398
-0.00573,5056
0.0211,4507
-0.162,7835
-0.43,9853
0.0742,2770
0.00877,4492
-0.0518,6938
0.136,1712
0.0083,4980
0.000776,4843
-0.0545,7171
-0.193,9814
-0.00403,4891
-0.00664,5294
-0.00922,5132
-0.0888,5653
-0.121,7884
0.065,1380
0.16,1367
0.0208,4242
-0.204,9144
0.0566,3376
-0.195,9975
0.146,2119
0.0654,3060
-0.0978,7926
0.375,267
0.0218,4372
-0.166,9503
-0.0291,5495
-0.141,8573
0.0402,4168
-0.0634,6558
-0.101,7824
-0.0755,8744
-0.124,8278
0.0446,3854
-0.105,7475
-0.232,9289
-0.368,10040
-0.0296,6776
0.0129,4790
0.244,1817
-0.0871,8244
-0.263,9930
-0.0344,5785
0.0802,2606
-0.0341,6235
-0.125,8250
0.0183,4429
0.121,2390
-0.241,8051
-0.0127,5540
0.105,3071
-0.163,9917
0.0788,3625
-0.133,7800
0.118,1202
-0.0184,6209
-0.0498,6842
0.299,293
-0.112,6800
0.133,2651
0.0168,4609
0.463,502
-0.04,6143
0.0599,3661
0.092,2265
-0.0359,5816
-0.196,7850
0.186,186
-0.0799,8058
0.0241,4302
0.000528,4989
-0.105,9608
-0.456,9323
0.148,494
0.0195,4246
0.13,2481
0.00973,4657
-0.122,7642
-0.543,7458
0.0823,2055
0.0437,3215
-0.183,9935
-0.135,9739
0.0616,2936
0.684,91
-0.0205,6155
-0.267,5052
0.219,1555
-0.0129,5915
0.0347,3096
0.335,427
0.000248,5062
0.155,1459
0.39,2545
-0.355,8259
2.62,334
-0.186,4777
-0.52,8447
0.0994,2751
-0.124,7461
0.0609,3366
0.0652,3290
0.119,603
-0.0865,9479
-0.282,6583
-0.136,7543
-0.00704,4976
0.0356,4162
0.142,1590
-0.0693,8486
0.507,618
-0.00948,5157
0.0881,2397
-0.0362,6255
-0.333,10270
0.00819,4817
-0.191,9611
0.232,1293
-0.00891,5223
-0.186,8224
0.0258,4193
0.22,228
-0.00515,5091
0.098,831
0.0216,4493
0.356,1964
-0.0532,7198
0.439,2
-0.129,8624
0.0621,3216
-0.142,7605
0.287,313
0.045,3800
0.0364,3640
-0.106,8178
0.196,1949
-0.187,9822
0.508,232
-0.123,8133
-0.074,7945
0.037,4329
-0.0709,7618
-0.125,8068
-0.158,9149
-0.0137,5553
0.257,107
-0.0793,7812
-0.312,9920
0.0617,3545
-0.0235,4960
0.0197,2917
-0.0438,6966
-0.0629,6206
-0.279,9773
-0.227,9615
-0.128,8210
0.0226,3962
-0.0693,9186
-0.0279,8937
0.0841,2647
0.0597,3902
-0.00823,5220
-0.256,9522
0.0862,1496
-0.114,8181
-0.0614,6521
-0.0527,6792
-0.135,7935
-0.06,6056
-0.0515,7318
-0.0693,7242
0.226,1215
-0.0911,7314
0.0331,4073
0.00464,4962
-0.0647,7882
0.304,506
0.261,295
0.329,563
0.0725,2804
0.0891,2816
0.0958,1996
-0.0784,9150
0.29,2309
0.228,1366
-0.172,8683
0.617,324
0.193,249
-0.201,9774
0.212,1209
-0.454,9993
0.15,2186
-0.0144,5296
0.104,1584
-0.0342,5605
0.344,848
0.15,1751
-0.189,9101
0.0474,3663
-0.018,5785
-0.0296,6890
0.2,1069
0.164,1428
-0.0142,5496
-0.0675,7692
0.116,1227
0.31,518
0.0938,2703
0.275,1087
0.0865,2869
0.171,1195
-0.017,5923
0.116,1709
-0.0796,7053
0.0586,3648
-0.0907,8572
-0.0256,5665
0.158,1288
0.0138,4781
0.0878,2369
0.0247,4378
0.0169,4341
-0.136,8825
0.068,2306
0.123,3063
-0.0942,8607
0.0695,3394
-0.0171,5493
0.083,2816
-0.0116,5703
-0.0679,8255
0.122,1255
0.162,543
-0.091,7952
0.243,431
0.0607,570
-0.065,7265
0.0397,3519
-0.162,7625
0.0179,4463
0.0871,2109
-0.148,9412
-0.0991,8741
0.0128,4593
0.014,4788
-0.252,9391
-0.0588,7385
0.0118,4189
0.0544,3044
-0.0708,6237
0.0182,4459
-0.0649,5854
0.173,2241
-0.0667,6373
-0.0608,7943
0.371,1533
-0.229,8797
0.0315,4495
-0.0199,4969
-0.116,9767
0.296,20
-0.0334,6310
-0.157,9204
0.161,2093
0.161,1668
-0.0802,8488
-0.217,10120
0.439,766
-0.0399,5996
-0.00483,5104
-0.195,7517
0.113,1032
-0.0313,6141
0.0802,3138
0.00771,4809
0.325,109
-0.0994,7524
-0.186,10263
0.021,3948
-0.584,8637
-0.269,4848
-0.129,5911
-0.0159,5642
-0.135,7930
0.178,718
-0.108,7601
-0.253,9660
-0.026,5763
-0.0691,7621
0.137,2121
-0.159,9176
0.0367,4058
-0.218,6883
-0.384,8671
-0.0877,8424
0.125,2358
0.129,1405
-0.0482,6498
-0.017,5375
-0.15,9140
-0.053,6604
0.1,2454
0.0829,2681
-0.0975,8633
0.154,1721
0.325,104
-0.0177,5814
-0.129,9159
-0.0389,6486
-0.142,9125
-0.101,7321
-0.0181,5801
0.156,765
0.0221,4493
0.3,230
-0.0761,7222
0.19,846
-0.00195,5164
0.0702,2976
-0.0146,5759
0.329,1243
-0.044,6757
-0.214,8945
-0.268,8603
0.0078,4760
-0.0158,5367
-0.0442,5902
-0.162,9951
0.0474,3191
0.344,598
0.017,4362
-0.0142,5716
0.0851,2741
-0.0318,6493
-0.0762,6540
0.104,3545
-0.0207,6454
0.335,183
0.0177,4587
-0.136,8583
0.132,1862
-0.169,9700
-0.187,9706
0.0961,1759
0.00996,4891
-0.223,8930
-0.135,8756
-0.138,8062
-0.129,8970
0.0204,4114
-0.124,7656
-0.0617,7956
0.424,506
-0.0372,5466
-0.0506,6774
-0.107,8829
0.0863,3141
-0.168,9799
-0.0247,5564
0.00164,4766
-0.00855,5342
-0.0119,5478
0.0493,2678
-0.0967,7794
-0.106,8518
0.0314,4113
0.132,890
0.159,1734
-0.118,9478
-0.353,6926
0.64,532
-0.0857,8256
-0.0744,8579
0.0654,1748
0.139,750
-0.149,7718
0.0662,3337
-0.154,10137
0.0439,2429
0.0338,3567
-0.03,5804
0.142,2373
-0.0549,6257
0.0223,4502
0.00277,4673
0.124,3465
-0.088,7714
0.00985,4654
-0.0688,6660
-0.021,6177
0.113,2110
-0.48,6892
0.039,3733
-0.277,8543
0.0661,3672
-0.0482,7647
-0.212,9020
0.341,2542
-0.596,8884
0.28,973
-0.456,10386
-0.0551,7093
-0.0576,6389
-0.0485,6762
0.0676,1463
-0.00392,4982
-0.22,9173
0.0983,3509
-0.0134,5557
0.0469,3471
-0.0523,7513
0.0401,4124
0.0959,2010
0.000218,5099
-0.0973,8844
-0.177,9628
0.102,2160
0.0257,4343
-0.137,7351
0.0921,3013
0.0232,4547
0.0976,1483
-0.0779,7980
0.0128,4680
-0.0654,8155
0.0535,4027
-0.0728,6306
-0.0193,5946
0.29,762
-0.0992,7346
-0.212,6506
0.00312,5017
-0.218,9272
0.0252,3904
-0.0228,5786
0.294,679
-0.0294,5574
0.141,1816
0.0719,3545
-0.471,10456
0.058,3464
-0.0452,6627
-0.337,8536
-0.0227,5629
0.000574,4938
0.0191,4265
-0.132,8753
-0.0719,8098
-0.0753,6861
-0.332,9416
-0.299,6448
-0.129,9639
0.154,449
-0.0624,7900
-0.0761,6654
-0.0353,7048
0.0938,3216
0.154,1088
-0.164,10115
0.579,178
-0.0632,6604
0.115,2256
-0.0343,6234
-0.341,10432
-0.0336,6583
1.09,38
0.0689,3564
-0.31,7981
0.445,444
0.0906,1207
0.214,909
0.128,2309
-0.0427,6706
0.0929,2633
0.631,251
-0.0212,5849
-0.18,9763
-0.0833,7436
-0.0129,5557
0.0928,3717
0.392,1847
0.0973,1678
-0.132,10050
-0.00808,5219
-0.175,9441
-0.171,8890
0.0613,3710
-0.0672,7908
0.0805,2778
-0.133,8334
0.177,2559
-0.0573,6723
-0.107,9125
-0.105,8678
0.0249,4054
-0.0448,6505
-0.365,10019
0.162,222
-0.23,10094
0.376,503
-0.0446,7324
-0.207,9683
-0.283,10237
-0.0439,6553
0.0223,4729
0.186,894
0.000606,4963
-0.0209,5651
0.016,4713
-0.0557,6326
0.15,2134
0.0128,4475
-0.295,9545
0.248,2076
-0.123,8053
-0.25,9214
-0.0107,5179
0.051,3278
0.252,314
0.153,2370
-0.0761,8772
0.0467,4024
-0.21,8834
-0.0852,7265
-0.0479,7374
-0.0161,5518
-0.081,6971
0.00845,4691
0.518,70
0.0289,3937
0.196,858
0.0362,1397
-0.0117,7887
-0.0602,10372
-0.012,7818
-0.00862,7152
-0.391,5931
-0.0845,6783
0.403,2471
0.0443,3580
-0.164,9232
0.011,4684
0.152,2683
-0.101,6973
-0.114,9131
-0.383,10333
0.376,53
0.0646,3904
0.0296,3376
-0.00998,5132
0.328,72
0.111,3715
0.702,744
-0.285,8837
-0.34,8088
-0.226,9856
-0.171,8965
-0.4,8931
0.202,1326
0.0119,4927
4.46e-05,4651
0.165,1054
0.158,997
0.529,461
0.114,2348
0.00367,5102
-0.0359,6780
0.307,1492
0.143,1986
0.0155,4519
0.124,2902
-0.0714,6914
-0.02,6026
-0.0739,9649
0.202,935
-0.0423,6395
-0.217,9855
0.13,2614
0.102,2416
0.078,2905
0.224,1294
-0.213,10035
-0.0251,5713
-0.128,9336
-0.141,9812
0.222,652
-0.106,8264
-0.0995,9080
0.153,2497
-0.144,6971
0.0293,4046
0.0163,4646
0.0488,4241
-0.097,8103
0.0505,4006
0.461,416
-0.0986,8527
0.00461,5049
-0.115,6605
-0.0531,7519
-0.161,8973
0.28,136
-0.0939,8744
-0.166,9926
-0.185,10158
0.0339,4008
0.644,0
0.15,2384
-0.0305,6819
0.0923,1517
-0.0507,5364
0.371,537
-0.2,9993
-0.084,7322
0.239,754
0.000191,5215
0.0966,1957
-0.347,8900
0.0869,2446
-0.0195,6001
0.579,1091
-0.0743,7800
-0.533,9498
-0.0448,7767
-0.0392,6677
-0.0203,6069
-0.0325,4152
-0.39,7552
-0.261,8100
-0.278,8797
-0.176,9712
0.14,3139
0.0738,2798
-0.0824,7890
-0.0277,5968
-0.0449,6706
0.226,700
-0.117,8457
-0.0363,5866
-0.134,9083
-0.109,8524
-0.05,6712
-0.286,9845
0.0589,2985
0.069,3621
0.0788,3160
-0.0627,6689
-0.295,10362
-0.419,7264
-0.262,4804
0.00469,4770
-0.183,7541
0.309,734
-0.108,7210
-0.0281,5572
0.0448,3780
-0.114,8165
-0.0474,7320
-0.122,8850
0.0231,3624
0.236,584
0.232,999
-0.0325,5866
0.0619,2304
0.0278,4165
0.00459,5011
-0.405,9995
0.0472,3990
0.211,2161
-0.156,8824
0.00717,4735
0.0211,4555
-0.0745,5588
0.25,336
0.153,1233
-0.112,7240
0.0171,4441
-0.164,8729
0.39,638
0.0289,4136
-0.213,10020
-0.13,7594
0.0215,3952
-0.0878,8514
-0.129,4351
-0.483,8384
-0.163,8231
0.0165,4497
-0.128,7130
0.0665,3587
-0.227,8632
-0.174,8329
-0.245,10223
0.0925,3453
-0.0326,6713
0.756,7
-0.26,5559
0.113,3619
-0.348,7931
0.115,1636
0.179,1158
0.073,3061
0.232,1764
-0.144,6761
-0.433,9217
-0.112,9618
-0.0319,6121
-0.284,9085
-0.0454,6437
-0.179,7654
-0.0405,6605
0.129,795
-0.0495,7553
-0.00319,5410
-0.139,8921
0.0967,1538
-0.0837,8921
-0.0634,7958
-0.144,9565
0.0164,4469
0.0528,2874
-0.0851,6256
-0.02,4958
-0.0478,6355
-0.242,10149
-0.107,8459
-0.108,7507
-0.088,7360
-0.191,8974
-0.0915,7415
-0.176,10094
-0.469,6339
0.196,2040
-0.301,8230
-0.0401,5837
0.156,1808
0.0128,4519
-4.98e-05,5111
-0.134,8427
-0.107,8284
0.0762,3030
0.238,361
0.0236,2719
-0.302,10011
-0.551,8599
-0.353,9282
0.0241,4240
-0.0599,7765
-0.0995,8319
-0.0963,6981
0.0528,3151
-0.0424,5400
-0.017,5793
0.0869,2681
-0.0187,5970
0.412,160
-0.171,8400
0.0805,3707
-0.00828,5110
-0.369,10154
-0.127,9247
0.0824,3089
0.0878,2260
-0.0587,6399
0.121,2924
0.116,1506
-1.92e-05,4918
-0.0381,5704
0.149,1088
0.0942,2662
0.186,2604
0.134,1142
-0.0634,7476
0.034,4236
0.133,1974
-0.0603,6076
0.119,3214
0.224,671
0.0321,3959
0.0529,3093
0.193,1262
-0.0256,6165
0.183,3193
0.102,758
-0.112,9186
-0.167,7801
-0.326,10195
0.127,3317
-0.083,7412
0.29,282
-0.0428,5984
0.107,2925
0.115,2494
0.0429,2846
0.122,1272
0.013,4731
0.0777,2478
0.0369,3603
-0.0274,5994
0.009,4838
0.257,989
0.0403,3409
0.0204,4395
-0.18,10107
0.0822,3523
-0.132,9069
0.0842,3412
0.22,676
-0.141,10000
0.187,2259
-0.0605,6628
-0.126,8420
-0.0839,6140
-0.0308,5856
0.082,2581
0.165,2366
-0.0913,7947
-0.425,8026
-0.21,10094
-0.213,10058
0.064,2945
-0.129,9533
-0.0502,6342
-0.477,6791
0.324,23
-0.165,9321
-0.181,10193
0.189,1953
-0.136,6855
-0.0172,5655
-0.0313,6073
-0.0362,6800
-0.145,9303
-0.181,9286
-0.168,8761
-0.153,8659
-0.0805,8077
-0.0105,5712
-0.1,8805
-0.114,9006
-0.0119,5473
-0.15,8177
0.0834,1489
0.0456,3037
0.0097,4756
0.036,3802
0.214,2249
-0.00829,5323
0.0673,3290
-0.0637,6848
-0.0477,6440
-0.189,8843
-0.101,6511
-0.0703,6180
0.00173,5097
-0.0707,7977
0.285,1254
-0.111,8649
0.34,50
0.0882,3473
-0.0484,6742
-0.0206,6322
-0.181,8393
0.196,1097
0.114,2524
0.664,1051
0.148,1935
0.0136,4548
0.154,681
0.0802,3188
0.0526,2708
0.256,1635
-0.111,10035
-0.116,7989
0.0314,4245
-0.215,7385
-0.228,6507
-0.132,7601
-0.0384,6178
-0.181,10272
-0.1,8273
-0.144,9784
-0.0301,5487
-0.0599,6461
-0.0823,8735
-0.1,9077
-0.124,7929
-0.101,6777
0.345,174
-0.113,8522
-0.0818,8915
-0.0683,7101
0.283,525
-0.203,9858
-0.139,9280
-0.0393,5556
-0.212,9897
-0.151,7809
0.0112,4574
-0.0724,6922
0.0401,3065
0.0647,3448
0.0642,1963
0.0171,4568
-0.119,8561
-0.133,9575
0.4,1587
-0.114,7905
-0.0238,6696
-0.0454,6414
-0.172,9359
0.0371,3815
-0.197,8593
0.201,2130
-0.0494,7331
0.0144,4414
0.18,1849
0.338,760
-0.153,8485
0.0689,3201
0.204,857
-0.00651,5279
0.725,1348
0.0951,2864
0.0184,4745
-0.0808,7702
0.209,634
-0.436,9833
0.237,436
-0.401,10256
-0.269,8972
0.0529,3497
-0.0917,8907
-0.0684,7201
-0.255,10317
-0.0378,6802
0.121,2435
-0.123,9136
0.082,1823
-0.0131,5642
-0.0319,6671
0.298,1816
0.116,2597
0.173,886
-0.109,8484
0.0326,4138
-0.465,6708
0.00585,4735
0.252,1153
-0.307,6665
0.189,565
0.0454,3868
0.0059,5045
0.246,252
-0.0991,7661
-0.0575,6665
-0.113,7288
-0.0619,8350
0.22,294
-0.0827,7439
0.104,3276
0.202,1980
-0.11,8358
0.139,281
0.0899,2605
0.0804,2533
0.0236,4236
0.381,11
-0.0412,7413
-0.0432,6915
-0.108,8630
-0.119,7522
0.274,2452
0.205,2201
-0.064,6906
0.00678,4877
-0.274,10022
0.043,3346
-0.121,7643
0.356,521
0.307,422
-0.0852,7961
0.0937,2685
-0.00617,4508
0.0045,4826
-0.45,10259
0.0777,2139
-0.0335,6452
-0.128,9620
-0.387,10178
0.0481,3778
-0.16,8374
-0.0565,8298
-0.0735,7748
-0.22,10161
0.0914,2455
-0.0822,7889
0.374,466
-0.0167,5623
0.296,1301
0.193,1588
-0.244,9797
0.266,1474
-0.0911,4875
-0.0709,7279
-0.0548,5896
-0.029,5976
0.213,922
-0.054,6426
-0.177,7096
0.0595,2832
-0.188,9742
-0.0834,7240
0.667,303
-0.0654,7886
-0.204,9784
-0.0609,7998
-0.0818,7846
0.0304,4483
0.277,157
0.146,3217
0.0806,2366
-0.0805,9539
0.317,686
-0.0306,5890
-0.153,7595
0.04,3510
0.0629,2591
-0.0275,6415
-0.133,8007
0.0663,2442
0.0182,4042
-0.107,9401
0.0188,4339
0.251,106
0.384,70
0.0777,3594
-0.156,8349
-0.111,9172
-0.0678,7574
-0.112,7931
0.021,4673
0.231,1386
-0.459,10345
0.155,1985
0.0595,2842
0.0699,2769
-0.359,10396
-0.0113,5556
0.163,2819
-0.0535,7557
0.0417,3360
-0.113,9112
-0.037,5742
0.0727,2527
-0.068,5995
-0.0471,6746
-0.00126,5111
0.00672,4804
-0.245,10210
0.0131,4522
-0.0197,5540
-0.231,8680
-0.0753,7086
0.145,585
0.233,892
-0.0532,6647
0.0477,4148
-0.102,7136
0.256,494
-0.0639,8239
0.0516,3281
-0.057,6849
-0.0501,6665
-0.113,7495
-0.00734,5018
-0.128,9576
0.187,1443
0.16,1198
-0.0127,5348
-0.167,8159
-0.123,8510
-0.157,9065
0.315,503
0.267,195
0.0435,3340
-0.503,7184
-0.0161,5339
0.0182,4276
0.109,1569
-0.0624,7001
-0.0522,6197
0.000601,5024
-0.0539,7004
0.192,531
0.00523,4551
-0.93,9154
-0.35,7506
0.0562,3613
-0.135,7160
0.0722,3910
-0.247,9970
-0.106,7651
-0.134,7918
0.0186,4569
0.0873,1277
0.0865,3013
-0.147,8125
0.0581,3454
0.12,2730
-0.123,9142
-0.0778,8558
0.112,2132
0.0559,3539
-0.298,9748
0.165,212
-0.27,9603
-0.0924,8812
0.0174,4787
0.0079,4869
-0.0736,6796
0.0529,3376
0.0842,1532
-0.0114,5799
-0.168,9524
-0.155,9517
-0.454,10075
-0.6,9835
-0.00446,5380
0.054,2022
-0.0743,6705
0.141,1562
1.12,519
0.0895,3660
-0.0362,6527
0.168,1051
0.102,2469
-0.0561,7698
-0.195,9905
-0.0914,7472
0.0423,3750
-0.017,6139
-0.102,9677
-0.0653,7696
0.0069,4797
-0.0847,8031
-0.0498,8969
0.0713,2542
0.221,1802
0.0948,1409
-0.3,9288
-0.0785,7391
-0.0108,5808
-0.151,9556
0.274,692
0.562,160
0.0633,2475
0.0558,3932
0.0334,3734
0.0436,3629
-0.0192,7823
0.202,2801
0.0129,3988
-0.22,9410
-0.0877,7439
0.97,125
0.331,727
0.509,40
-0.0482,6027
-0.395,9640
0.0919,2873
0.207,2809
0.175,1993
-0.168,9766
-0.085,6413
0.15,2921
0.0375,3962
-0.188,8739
-0.0188,5229
0.00665,4555
-0.219,9868
0.368,1837
0.28,2515
-0.0216,5253
-0.0337,6403
-0.113,8374
-0.0142,5756
-0.124,8992
0.0302,4407
-0.247,9090
-0.0485,6043
-0.0624,9032
0.116,2300
0.0348,3766
0.265,954
-0.0312,6105
0.0949,3227
-0.0141,5852
-0.0165,6340
0.0911,2162
-0.108,8331
-0.0142,5605
0.0943,3639
0.447,53
-0.0608,7054
-0.048,6614
-0.0724,7015
0.0681,3999
0.389,1251
-0.0223,6183
0.135,946
0.154,962
-0.0908,7266
-0.177,9330
-0.182,8510
-0.0369,6367
-0.0389,6380
0.119,1796
-0.0909,7804
0.378,1299
0.277,230
-0.0735,8146
-0.119,8289
0.0827,3112
0.0303,4106
-0.0174,5410
-0.252,8776
0.0288,4260
-0.0745,9141
0.377,549
-0.131,8141
0.0384,3955
-0.353,9998
-0.00556,5302
-0.162,9645
0.017,4454
0.0133,4657
0.0252,4639
-0.243,8317
-0.0632,8983
-0.0261,6713
-0.0368,6724
0.00796,4904
-0.301,8372
0.114,1050
-4.84e-05,5098
0.155,2078
-0.152,8858
0.356,583
0.191,1887
-0.201,9821
-0.0967,8033
0.111,1707
0.251,420
0.0393,3455
0.174,1762
-0.0083,5360
-0.0331,6214
0.0818,1876
-0.38,10385
0.121,2545
0.302,550
0.123,1515
-0.0532,8029
-0.00288,5515
0.0617,3851
0.278,2008
-0.0819,6249
-0.00243,5074
-0.0482,6201
0.0662,2837
0.104,1338
0.0171,4495
0.0648,3483
0.0762,2801
0.279,221
0.113,2244
-0.142,7013
0.00455,4893
0.394,811
0.144,1914
0.108,1164
-0.0767,6757
0.0601,3549
-0.029,7437
1.26,25
0.318,619
0.0189,4052
-0.0121,5271
0.083,2055
-0.0739,3155
0.387,1632
-0.0645,6135
0.0351,3702
-0.0375,6445
-0.225,8663
-0.0204,5345
0.117,990
0.112,1385
0.0468,4100
0.0237,4267
0.0785,1681
-0.00701,5569
0.136,1844
-0.00436,5451
0.0831,2576
0.00394,5080
-0.0862,7733
0.014,4367
0.0849,3375
0.416,625
0.08,2603
-0.249,10077
0.414,85
0.0474,3455
0.659,37
0.112,2391
-0.0453,7947
0.174,83
0.484,1165
-0.48,7405
0.216,2838
-0.00678,5199
0.222,47
0.112,1210
0.0312,4026
0.37,162
0.101,2260
-0.091,8223
-0.0283,6299
0.39,420
0.132,2174
0.0342,4051
-0.123,9108
-0.17,9099
0.196,907
0.244,225
0.0204,4129
-0.234,9749
-0.0474,6647
0.168,1656
0.166,904
-0.0261,6470
-0.177,9488
-0.157,8550
-0.136,7162
0.419,1646
-0.182,9664
0.29,111
-0.0754,5996
-0.24,9027
-0.037,6326
0.0128,4867
0.0901,1761
0.0481,3125
-0.0765,8911
-0.0524,5809
0.0194,4361
-0.105,7416
-0.0752,7874
0.203,353
0.0314,4046
-0.0997,7870
0.00871,4601
-0.0349,5397
-0.133,10082
0.162,970
0.0902,3120
-0.0305,5290
0.245,464
-0.156,8209
-0.0276,6338
-0.0297,5760
0.148,1196
0.0228,4573
0.138,2853
0.011,4666
0.032,3975
0.0261,4275
0.295,126
-0.205,9795
0.0188,4489
-0.0809,8507
0.111,868
0.146,2503
0.342,1626
0.0247,4274
0.0376,3902
-0.072,7324
0.181,938
-0.073,8038
-0.0628,6534
-0.0725,6587
-0.00328,4939
-0.0596,7125
-0.112,7156
-0.0425,5918
-0.172,9078
0.189,2282
-0.44,10090
0.0105,4500
0.189,825
0.0396,3451
0.029,3931
-0.237,9304
0.112,3000
0.281,2
-0.206,10304
0.0455,4258
-0.0298,6422
0.161,1951
-0.0383,5773
0.0397,3853
-0.129,8760
0.0107,4731
-0.0167,5754
-0.00378,5482
0.074,2836
-0.0466,6889
-0.056,7460
-0.126,7707
-0.166,9153
0.104,2196
-0.379,9329
0.0334,4499
-0.152,9816
0.0759,3119
0.195,1051
0.101,2344
0.0485,4007
-0.0855,7273
0.0153,4413
1.05,10
-0.0735,7683
-0.0789,7506
-0.0966,7379
0.0136,4570
0.0597,2864
0.112,1049
-0.543,10376
-0.21,8359
0.17,2196
-0.0409,6705
-0.0522,6787
0.102,1368
-0.000379,5039
-0.118,7977
-0.0886,7326
0.0548,3538
0.0193,4521
-0.417,9999
0.142,2730
-0.487,10443
-1.2,10137
0.114,2482
0.026,4613
0.135,1896
0.364,69
-0.0357,6537
-0.166,10119
0.156,2410
-0.00844,5260
-0.052,6500
0.122,663
-0.0181,6449
-0.0785,8585
-0.337,9806
0.347,341
0.177,2086
-0.166,9777
0.0303,2859
-0.0124,5543
-0.0282,5707
-0.0839,6263
-0.109,6906
-0.226,8663
0.291,160
-0.0585,7922
0.0976,2367
-0.0405,5981
-0.0787,7253
0.143,1149
-0.0537,7449
-0.0775,5934
-0.618,7808
-0.128,7772
-0.255,10059
-0.116,8228
-0.0808,6531
-0.104,8114
0.12,2389
-0.103,7776
-0.148,10004
0.0201,4032
0.0527,3523
-0.0193,5676
0.0167,4577
-0.296,9945
-0.0204,5746
0.0158,4771
-0.217,9372
-0.126,7492
-0.339,9832
0.234,341
-0.167,8399
0.164,1815
0.0945,2957
0.0292,4269
-0.103,8838
-0.0829,7644
-0.444,6213
-0.151,8876
-0.136,5415
0.0875,1331
0.167,421
0.0189,2869
-0.0109,3124
0.113,2839
-0.195,8559
-0.423,9914
0.125,1389
-0.0724,7776
0.155,2273
-0.0612,5793
0.112,2650
-0.0903,8592
-0.0182,5787
0.0163,4673
-0.0815,7434
0.19,1954
-0.0393,4354
0.168,262
0.152,1386
-0.0535,6540
0.104,3382
-0.0266,5748
-0.0525,6295
0.0959,1079
0.0918,3220
0.0101,4741
-0.0159,5682
0.128,3017
0.27,956
0.0465,3950
-0.0631,7877
-0.183,9915
0.21,1251
0.114,1855
-0.169,9294
-0.0822,10248
-0.0325,7356
0.114,2836
0.0935,2387
0.164,410
0.173,1476
-0.00657,5355
-0.0483,7077
0.0252,4521
0.0826,3654
-0.161,6700
0.396,210
-0.116,7825
0.0182,4451
0.352,186
0.658,96
-0.209,9096
-0.117,7991
0.0865,2329
-0.322,10097
-0.273,9927
0.092,3534
-0.0576,6635
0.0777,2783
-0.174,10211
9.1e-05,5084
0.126,454
0.118,1836
0.0542,3695
-0.249,9934
-0.0051,5177
-0.0843,8158
-0.0842,8360
0.0466,3783
1.33,41
-0.0261,6474
0.0949,2464
0.256,65
-0.222,9400
-0.156,7065
-0.183,9869
-0.349,9716
-0.252,10413
-0.227,9244
-0.123,8670
-0.103,8811
0.124,734
-0.1,8308
-0.0716,7572
-0.259,10335
-0.0483,6121
-0.0945,8234
-0.0472,6475
0.0876,2856
-0.00338,5370
-0.000688,5188
-0.244,9788
0.202,1058
0.0234,4093
0.164,809
0.13,1289
0.0172,4497
0.0302,3992
-0.0541,6733
-0.162,7915
0.27,903
-0.129,8550
0.0649,2131
0.0837,3004
-0.0972,5220
0.228,1520
-0.0302,5845
-0.0641,6448
-0.0646,7300
-0.182,8887
0.368,899
0.0417,2699
0.0318,3919
-0.104,8019
-0.0769,7939
0.131,3264
0.24,617
-0.273,10215
0.611,800
0.171,718
0.458,221
0.0459,3570
-0.206,10016
0.0831,2312
-0.0599,5974
-0.0155,6195
0.0341,3702
0.384,351
0.237,1285
-0.0557,6706
0.0992,1538
0.0105,4767
0.137,233
-0.021,5705
0.0598,3517
0.323,21
-0.0687,7114
0.171,307
0.00199,5217
-0.0602,7392
0.664,26
0.0311,4328
-0.0271,6239
0.26,220
-0.246,9983
-0.0919,5157
0.12,937
0.0432,4173
0.0567,3271
-0.0214,6569
-0.0316,5259
-0.297,9693
-0.0708,7750
0.134,904
0.222,851
0.00856,4684
0.0548,3365
-0.0663,6044
0.0659,3684
-0.175,7619
-0.304,8501
0.0193,4445
-0.0767,8556
0.0931,1200
0.203,1656
-0.161,8523
0.00877,4869
0.0938,2344
-0.0479,6555
-0.195,9480
-0.172,9762
0.365,837
-0.245,8960
-0.12,9111
0.0805,2459
0.203,1761
0.303,48
0.206,2051
-0.0946,5499
0.0163,4350
0.251,944
-0.118,8497
-0.00371,5169
0.0512,3707
-0.251,8375
-0.267,9912
-0.0876,7058
0.261,132
-0.0931,7458
-0.149,8452
-0.0359,6333
0.0192,4314
0.201,2130
-0.397,10203
0.0671,2628
-0.397,9824
-0.19,8485
0.0484,2407
-0.0379,6243
-0.0633,7428
-0.0997,8761
0.0598,3469
-0.029,6083
-0.155,8310
-0.0456,7186
0.107,2126
0.193,1750
-0.36,9683
-0.0154,5645
0.0407,3819
0.145,1900
0.0698,3222
-0.0894,7565
-0.0803,7894
0.241,1886
0.0311,3468
-0.074,8092
-0.173,10356
0.177,329
-0.0848,8513
0.0942,2585
0.399,862
0.263,986
-0.0397,6663
-0.202,9284
0.0412,4346
0.257,826
-0.0482,6361
0.0557,1360
-0.00289,5224
0.0179,4524
0.0585,3865
-0.315,9831
-0.186,9404
0.0839,2996
0.0498,3484
-0.073,6724
-0.00753,4922
-0.0888,8307
-0.0394,6417
0.0797,2239
0.0961,2867
-0.14,9689
-0.349,9501
0.123,2578
-0.129,8519
-0.0186,5975
0.167,2336
0.159,691
-0.139,8515
0.00945,4373
-0.43,10450
-0.145,10040
-0.0933,7481
-0.185,10007
0.0811,3282
-0.529,10347
-0.0949,6505
0.408,255
-0.328,10366
0.346,487
1.33,422
-0.0544,6103
-0.141,7093
0.175,767
0.151,1725
-0.165,9953
0.0773,2105
-0.182,8203
-0.0405,7688
0.00751,4573
-0.274,9792
-0.333,10045
0.0071,4577
0.416,1145
0.0489,2703
-0.0788,8436
0.0815,2890
0.181,1452
0.122,2606
0.477,155
-0.111,7896
-0.00559,5234
-0.0325,6271
-0.0369,6289
-0.0533,6036
0.0329,3928
-0.109,7790
0.141,587
-0.0146,5365
0.131,3049
0.189,1828
-0.159,8695
-0.03,6766
0.236,156
-0.0317,6501
-0.357,10052
0.0916,3351
-0.0449,5951
-0.114,9705
0.0504,2190
0.159,2460
0.252,1612
0.151,2922
-0.144,7292
0.644,295
0.212,1042
0.115,2239
0.0876,2670
0.111,3393
0.327,318
-0.116,9117
0.174,1806
-0.157,7949
0.00804,4852
-0.0239,5299
-0.00871,5051
-0.114,9575
0.298,141
-0.0145,5423
0.0125,4758
0.0398,4070
0.129,2342
-0.0573,7057
-0.169,9047
0.089,2445
-0.141,8232
0.373,2052
0.32,823
-0.226,10170
-0.0219,5580
-0.00155,5037
0.276,346
0.184,1091
0.0608,3026
0.205,619
0.132,1518
0.115,2189
-0.126,5921
-0.163,9314
0.153,1987
0.0737,2862
-0.0221,6576
0.254,649
-0.167,8458
-0.164,9809
-0.138,7781
0.154,183
-0.0798,9040
0.0784,3566
-0.191,9576
-0.105,7900
-0.00973,5252
-0.338,10241
0.0393,3707
0.129,2050
1.2,9
0.0827,2981
0.282,1665
0.0763,3175
0.0134,4434
-0.0129,5264
0.00349,4871
-0.0509,6656
-0.0328,4955
-0.0573,7544
-0.062,7787
-0.184,9510
0.0393,3247
-0.0867,7328
-0.105,7480
0.529,21
-0.0186,5914
-0.0697,7097
0.0469,3309
-0.0752,6597
-0.0687,7374
0.043,3376
-0.0752,8194
0.234,2238
0.0118,4805
-0.113,7130
-0.0236,5867
0.0238,4049
-0.0416,7446
-0.0836,7302
0.174,2490
-0.34,7927
-0.434,8121
-0.194,9807
-0.0779,8862
0.0791,3129
-0.229,10260
-0.186,9907
0.0147,4655
0.0719,2500
0.0387,3454
-0.226,10004
-0.122,8168
-0.0265,6130
-0.0848,6384
-0.134,9859
-0.14,9177
0.291,1028
0.00691,4891
-0.154,9213
-0.0264,5840
0.022,4148
0.056,3020
-0.13,8718
0.196,888
-0.15,7901
0.0398,3937
-0.0107,5788
-0.124,6276
0.0039,5037
0.0138,4491
-0.165,8679
-0.444,10158
0.0885,2169
-0.109,9527
-0.31,9732
-0.274,9682
-0.213,9324
0.0918,3766
0.047,3998
-0.0662,6631
0.0558,3934
0.153,1944
-0.0887,7007
0.0372,3739
-0.151,10009
0.168,1643
0.0417,3182
-0.19,8633
0.264,503
1.05,110
-0.125,8730
0.92,885
-0.0947,7337
-0.13,7875
-0.0272,5708
-0.12,8706
-0.0283,6408
-0.0816,6756
0.0845,2554
0.183,2887
-0.118,10013
-0.00937,5442
0.186,386
-0.143,8883
-0.128,8351
-0.357,10394
-0.00299,5075
0.244,556
0.0205,4662
0.0297,4556
0.0479,3718
-0.259,9904
0.224,339
-0.161,9313
0.0874,1084
0.327,1176
0.407,1851
0.0654,3960
0.0875,2518
0.0975,2702
0.105,1423
0.0206,4169
-0.206,9364
0.442,486
-0.0427,6703
-0.0655,7364
-0.0777,8092
0.0207,4445
-0.0852,7782
-0.441,10125
0.185,2413
-0.0909,7821
-0.0333,6860
-0.00805,5632
0.0933,2640
0.38,1064
0.926,406
0.0999,1162
0.123,586
0.344,509
0.446,287
-0.315,7980
-0.0974,8179
0.0882,2454
-0.0369,6872
0.264,584
-0.321,9928
-0.0574,7460
0.198,66
0.0814,1417
0.032,3852
0.0973,2488
0.0572,3187
-0.113,8301
0.127,1740
-0.0849,7443
-0.0716,7624
0.186,1644
0.00949,4666
0.161,2180
0.244,1332
-0.249,10104
0.00765,4834
0.01,4757
0.283,1033
0.0645,4189
0.103,2717
0.0431,3803
0.215,1100
-0.29,9258
-0.0525,8519
0.0983,1903
-0.113,8103
0.052,2683
0.163,479
0.133,3143
0.0529,3666
0.207,1059
0.223,937
-0.163,9197
0.0593,3148
0.024,4638
-0.0424,6163
0.182,1224
-0.325,10090
0.0946,2959
-0.32,10403
0.233,586
-0.366,8353
-0.218,8890
-0.0466,6152
0.294,995
0.13,1516
0.0357,4050
0.133,1274
-0.192,8461
-0.0632,8795
-0.0461,7110
0.0122,4278
-0.152,8046
-0.292,8930
0.0164,4378
-0.109,7894
0.132,922
-0.00391,5120
0.053,3783
-0.203,9777
-0.109,6212
0.0215,4470
0.119,1435
-0.0567,7860
-0.197,10160
-0.0678,8600
-0.0336,6749
0.0367,3821
-0.0485,6004
0.054,3169
-0.0644,7576
-0.101,7973
-0.205,9956
-0.176,9710
-0.135,7350
-0.0517,6854
-0.446,10046
-0.399,10041
-0.0551,7780
0.0522,3424
-0.0613,6521
-0.0768,8003
0.177,468
-0.117,8684
-0.0466,6713
0.202,907
0.134,1995
-0.398,10005
-0.0447,6647
0.151,1241
-0.0923,8524
0.307,791
-0.0875,7950
0.0244,3858
0.173,1037
-0.0513,6680
0.00986,4676
0.339,749
0.255,624
0.198,1942
-0.123,9547
0.081,1934
-0.192,7871
0.0358,4068
-0.259,9853
0.00991,4725
-0.103,8284
-0.116,7692
0.322,171
-0.0254,6014
-0.106,6720
0.169,615
0.0408,3852
0.00994,4536
0.0278,3780
0.0744,3486
-0.377,10218
-0.132,8139
-0.207,8783
0.0734,2444
0.209,1550
0.304,204
0.0682,2662
0.162,2572
0.0855,1250
-0.0968,8833
-0.338,8841
-0.169,6730
0.146,2558
0.0806,2648
0.00304,4870
-0.0871,8802
0.0458,4164
0.425,1106
-0.0619,6185
-0.207,9236
0.0169,4412
-0.327,10128
-0.119,3845
-0.172,4512
-0.218,3626
-0.0598,5511
-0.043,6822
0.492,85
0.0141,4785
0.0223,3506
-0.0849,6684
0.0607,2822
-0.0928,10009
0.0958,2749
0.149,2013
-0.077,7694
0.0364,4465
0.122,1885
0.0461,3167
-0.143,7481
0.0465,3715
-0.408,9822
0.284,106
0.0321,3838
-0.164,9922
-0.0418,5870
0.261,1120
-0.028,5588
-0.12,9941
-0.0358,5532
-0.0157,5745
-0.183,9181
-0.0994,7328
0.0464,3680
-0.0469,7011
0.0221,4274
-0.22,10226
0.342,32
-0.0842,6972
0.207,2558
0.177,1026
-0.016,6548
0.0238,4216
-0.043,5743
-0.0144,5368
-0.214,8429
-0.0312,6494
-0.0632,7233
-0.198,8798
0.152,2573
0.0363,3671
-0.101,6442
0.19,1895
-0.146,9771
0.147,1794
-0.276,9575
0.111,1542
-0.209,6968
0.0403,3485
-0.213,10309
0.0699,3226
0.226,723
-0.00907,5049
-0.149,8619
0.0489,3974
0.287,894
-0.0299,5641
0.0447,4023
0.0542,3683
0.181,2507
0.154,2088
-0.215,10325
-0.144,9148
-0.174,9482
0.111,2231
0.224,1432
0.0353,3282
0.101,1189
-0.0236,5590
-0.201,6839
-0.297,8742
0.145,2935
-0.0928,7890
0.0435,3398
0.126,1742
-0.533,10336
0.189,2743
0.000144,5127
-0.0106,5338
0.353,703
0.0718,3136
-0.37,10156
-0.127,6315
-0.0976,8744
-0.136,9178
0.0808,2235
-0.0695,6663
-0.162,9167
-0.188,9514
0.298,91
-0.12,7777
-0.0667,8584
-0.0277,5294
-0.356,10305
-0.0477,5697
0.0753,3279
0.00349,4963
0.15,389
0.0785,3374
0.00621,4771
-0.128,6743
0.0683,3983
0.223,250
0.0101,4814
0.361,227
0.212,1083
0.403,667
0.144,2066
-0.0745,9417
0.0919,1576
-0.275,9812
-0.0436,6187
0.119,1794
0.0705,3377
-0.116,8457
0.0271,4140
0.0898,2212
-0.159,6272
-0.512,10142
-0.0616,6514
0.0591,3019
-0.0394,6454
0.0345,3940
0.19,983
-0.141,9223
-0.285,9902
-0.0748,7747
0.0947,1686
-0.202,9477
-0.142,9243
-0.0893,7898
-0.239,9418
0.0623,1678
-0.121,8070
0.195,2104
0.325,1045
0.12,3432
0.408,1319
0.0147,4493
0.017,4737
0.224,974
-0.0503,6639
-0.0745,6874
0.17,1687
0.0206,4031
-0.0219,6217
0.0222,4377
0.138,2365
0.0982,3137
0.112,2180
0.000105,5228
0.372,25
-0.0331,5994
0.064,2838
0.136,1247
-0.144,8036
-0.0799,6738
0.22,22
0.0885,2501
0.134,1794
-0.00148,4923
-0.109,6778
-0.0336,6870
-0.0392,6830
0.128,1523
-0.102,7168
0.201,1982
-0.172,6982
-0.018,5778
-0.00887,5357
-0.0431,6947
-0.153,9734
-0.0422,6286
0.0458,3935
0.0703,2029
-0.0531,7633
0.074,2768
0.249,782
-0.372,8756
0.746,2
0.0312,3937
0.0937,2664
-0.147,9059
0.479,239
-0.0848,7053
0.217,2981
-0.0649,7051
0.337,98
0.22,604
0.00434,5031
0.0692,4160
-0.00165,4921
-0.0484,6781
0.00814,4746
0.0206,4639
-0.182,9731
-0.221,9513
0.0783,3994
0.0944,2538
-0.0767,7252
-0.209,7400
-0.183,6731
0.251,432
-0.157,9488
0.0387,4029
0.16,1333
-0.121,8298
0.113,2179
-0.0576,6483
-0.0205,5488
0.101,2093
-0.111,9021
-0.115,8418
-0.1,8957
-0.182,8110
-0.093,6409
-0.0709,7487
-0.0757,9729
-0.351,8836
0.0527,3575
-0.243,10410
-0.04,7041
0.0712,2108
-0.107,8343
-0.218,10185
0.0571,3610
0.222,1993
0.02,3364
-0.0598,8330
-0.00462,5397
0.00464,5082
-0.0757,6374
0.0301,4191
0.414,175
0.019,4041
-0.107,8569
-0.0869,7420
-0.26,9669
-0.0607,6392
-0.0536,7314
-0.04,7481
0.0629,2653
-0.00693,5240
0.0156,4696
-0.326,9402
0.00667,4921
0.0186,4667
-0.0489,7884
0.327,1118
0.0669,2967
0.0913,3555
-0.0387,6926
0.101,1246
0.0579,3075
0.32,748
-0.000442,4839
-0.0519,6404
0.0902,1996
0.085,986
-0.00454,5133
0.0411,3812
-0.0941,6396
-0.499,10163
-0.268,9639
-0.181,10062
0.0315,3904
0.0132,4495
-0.107,6874
-0.134,8481
0.0935,3036
-0.0635,8002
-0.162,9257
-0.0556,6624
-0.124,8536
0.00546,4634
0.0141,4848
0.184,3043
0.0314,4494
0.126,3161
-0.0914,7825
-0.0412,5666
0.165,1854
-0.0627,9007
-0.165,8997
-0.469,8062
0.409,762
0.304,1307
-0.0562,5755
-0.0307,6687
0.0269,3790
0.684,1998
0.537,1842
-0.529,7476
-0.193,9000
-0.347,9108
0.0327,4340
0.13,2968
-0.00953,5204
0.036,3974
-0.0699,7492
-0.553,7173
0.988,1296
0.15,3120
-0.0276,6613
0.0471,3456
-0.618,8901
0.0262,4505
-0.427,9755
-0.175,8041
0.214,878
-0.0818,3820
0.0159,4526
0.0878,1301
0.0372,4032
0.0305,4180
-0.109,7481
-0.813,9780
0.305,390
0.0501,4227
-0.202,9207
0.257,487
2.15,59
-0.0415,5546
0.142,1765
0.218,2882
-0.0904,7330
-0.0183,5645
-0.101,6100
-0.188,8834
0.0631,3811
-0.0187,3824
-0.206,10307
-0.115,8724
0.0248,4311
0.035,3445
-0.214,8947
0.00701,4892
0.0533,2738
-0.007,5430
-0.216,9349
0.0891,3311
0.214,995
-0.0848,7335
0.325,94
-0.259,8937
-0.0196,5778
-0.182,10303
-0.0294,7076
-0.0877,7154
0.049,3332
-0.0985,8100
-0.178,10095
0.0534,2328
-0.226,10302
-0.335,7071
-0.0349,4289
0.641,790
-0.0904,5470
-0.153,6270
0.0883,2547
0.116,2327
-0.304,9021
0.291,168
0.208,466
0.046,2639
-0.146,8878
0.194,1388
0.0108,4452
0.277,707
-0.0385,6518
-0.19,9740
0.978,284
-0.0476,6813
0.221,504
-0.338,10116
-0.163,10149
-0.0436,7800
0.125,1476
-0.261,10145
0.0552,2901
0.0612,3081
1.1e-05,5272
-0.0529,6205
-0.0523,8124
0.195,1486
0.139,1446
-0.0621,6590
0.0279,3368
-0.0699,6950
-0.028,5553
0.0971,1746
-0.107,6540
0.0461,3931
0.00938,4608
-0.0233,7810
-0.147,8798
-0.242,9189
-0.0249,6278
0.229,295
-0.126,7906
-0.145,9262
-0.239,9972
0.0153,4604
0.198,1760
-0.118,8492
-0.0961,8276
-0.049,6247
0.0769,2595
-0.0974,6640
-0.0309,5709
-0.282,9442
0.0547,2227
-0.0914,8910
-0.0873,7825
-0.205,9763
-0.0328,5432
-0.0394,6082
0.149,1444
-0.105,8660
-0.0148,6198
0.0634,3388
-0.133,8254
-0.19,10220
0.0957,2827
0.205,735
0.0549,3772
0.4,266
-0.394,9912
0.413,1999
-0.104,9404
-0.032,6703
0.0874,1705
-0.154,9190
-0.0638,5513
-0.034,7005
0.0358,2721
-0.0886,7632
-0.0525,6138
0.0398,4102
-0.0217,5698
-0.132,8600
-0.151,9055
0.0849,1692
-0.129,9223
0.0316,4125
-0.438,9789
0.369,1710
-0.13,9463
0.00952,4487
-0.196,7748
0.188,1674
0.0394,4456
-0.43,9283
-0.182,8738
0.474,250
-0.263,7336
0.132,2180
-0.171,5851
-0.0228,5534
-0.224,8436
0.000681,4764
-0.00964,5284
0.0444,3229
-0.206,8541
-0.0463,5814
0.0513,1823
0.12,2681
-0.1,9435
-0.0413,6537
-0.178,8021
-0.0341,5915
-0.0194,6344
-0.0945,8525
-0.146,8510
-0.146,8633
-0.144,8225
-0.00388,5073
0.0352,3866
-0.0852,8859
-0.0767,6944
-0.135,7761
-0.34,9753
-0.248,10101
-0.0705,8342
0.132,1914
-0.118,8656
-0.0648,7909
0.213,1641
0.102,3549
0.00791,4791
0.0312,3454
-0.0144,5344
-0.254,10074
-0.0387,7471
0.262,825
-0.0024,5213
0.0245,4319
-0.0419,5481
-0.182,8547
0.138,2513
-0.0246,5566
-0.0134,5406
-0.0635,9203
-0.0853,7605
-0.131,9179
0.118,1871
0.0372,4039
-0.043,6624
0.0941,1838
-0.105,7750
-0.0117,5607
0.0809,3077
0.409,401
-0.138,9674
0.0297,4121
0.051,3583
-0.203,7843
0.543,145
0.103,1774
-0.133,8986
-0.242,9281
0.14,2474
-0.0151,5953
-0.0988,7948
0.207,2280
0.118,2732
0.0754,2746
0.208,1315
-0.0159,5406
-0.147,7825
-0.0606,6684
-0.314,10190
0.378,115
0.0137,4849
-0.0408,5801
0.215,2510
0.224,1089
-0.0656,8479
-0.0434,6345
-0.17,8848
-0.237,9434
-0.287,3649
-0.0732,8663
0.00883,4740
-0.0222,5961
-0.183,8353
-0.334,7363
0.217,1751
-0.0431,5661
0.0965,2366
-0.246,9654
0.00852,4792
-0.089,8430
-0.028,6423
0.115,1656
-0.343,10401
-0.0744,8227
0.124,1361
0.0508,3286
-0.078,6626
-0.0561,6604
0.157,294
0.0202,4722
-0.0272,5780
-0.0227,5464
0.217,1617
-0.128,6145
-0.274,10009
0.0822,944
-0.192,9482
0.161,1272
0.178,701
-0.0711,6753
0.23,1370
0.0146,4138
-0.0792,2467
-0.229,4825
-0.406,5860
-0.687,9811
0.146,3441
-0.526,8095
1.82,574
0.179,1972
0.0135,4589
0.171,1211
0.0147,4234
0.0317,3698
-0.164,8699
-0.0475,6374
0.284,530
0.114,2307
0.0387,2794
-0.058,6316
-0.224,9174
-0.491,10348
0.126,2034
-0.166,9576
0.334,600
0.362,56
0.00211,4981
-0.0658,7265
0.118,2871
-0.136,10187
-0.00164,5195
-0.0195,6083
0.0675,1851
0.153,1377
-0.196,7749
-0.00646,5462
-0.237,10129
-0.055,6297
-0.0471,6576
0.291,684
0.0495,4344
-0.224,10044
0.0909,1316
0.0785,3360
0.131,2400
-0.124,8464
-0.0173,5611
0.0302,4080
-0.327,9333
-0.187,9110
0.0558,4149
0.088,2296
0.0274,3945
0.0885,1483
0.477,226
-0.053,5491
-0.154,7563
0.603,154
0.135,1173
0.00781,4915
-0.00282,5094
-0.119,8457
0.0959,3239
0.123,1070
-0.259,10290
0.706,12
0.131,1770
0.131,1623
0.211,1060
0.106,2055
-0.0619,7928
-0.0652,6996
0.272,223
-0.182,8341
0.328,577
0.0722,3251
0.0544,2291
0.0567,3326
-0.0382,6897
-0.196,9217
-0.125,7778
-0.042,6867
-0.1,7541
0.00356,5100
-0.0289,6083
-0.00445,5176
-0.0203,5595
0.16,647
-0.0197,6004
-0.0279,5711
-0.013,5222
0.0181,4784
0.062,2728
-0.0322,7240
-0.0147,5636
-0.0218,5913
-0.146,7769
-0.0198,5695
-0.0306,6414
0.178,339
0.0701,2029
0.0661,3585
-0.0128,5529
0.00137,5122
0.149,1936
0.00609,4827
-0.0707,8482
-0.147,7602
0.0353,4330
-0.277,10392
0.121,1459
-0.112,8413
-0.204,9980
0.0108,4574
0.0986,2809
-0.0778,6554
-0.156,10406
0.0578,3621
-0.0689,7227
0.176,2864
-0.389,9747
-0.0931,5992
0.114,1534
0.0149,4119
0.0782,3491
0.216,2223
0.406,527
-0.513,10382
0.0203,4561
0.0784,2273
-0.0359,6598
0.156,2001
0.312,495
-0.0654,6058
0.0312,3486
-0.0831,9163
-0.65,8940
0.27,1116
-0.0458,6070
-0.204,9482
-0.0363,7444
-0.229,10397
0.194,1324
0.104,3411
0.00666,4864
0.0948,3071
-0.0941,8791
-0.00821,5634
-0.0684,8343
-0.17,9627
-0.0493,6982
0.332,222
-0.0179,6261
-0.0717,8860
0.0765,2435
0.0681,3741
0.00714,4784
-0.268,10012
0.106,2628
0.0139,4593
-0.26,9345
-0.0372,6285
0.0617,3628
0.32,1285
-0.0559,6739
0.17,73
0.061,2237
0.073,1968
0.189,1664
0.0344,4013
-0.303,10374
-0.00606,5408
-0.0864,8919
-0.228,9738
0.0305,4077
-0.111,7780
0.0664,2758
0.0591,2338
0.0899,3782
-0.417,9055
-0.0125,5191
0.0348,4056
0.212,934
0.0745,2350
-0.0168,5326
0.223,1346
0.211,2214
0.137,3382
-0.111,8783
0.0184,4267
-0.0714,8729
-0.0279,5661
-0.174,8766
-0.105,7163
0.105,729
0.105,961
-0.18,8818
-0.134,8687
-0.398,9558
-0.131,7213
-0.189,9794
-0.425,8092
-0.186,9033
-0.133,7478
-0.165,8382
0.00845,4842
-0.0452,7296
-0.224,8080
-0.156,9317
-0.0363,6228
-0.0908,6004
-0.125,8531
-0.18,9611
0.228,974
-0.0202,5885
0.255,2882
0.0974,3136
-0.076,8011
0.0551,3479
0.029,3145
0.13,3355
0.068,3257
-0.0241,5784
0.019,4121
-0.121,8586
-0.303,10313
-0.165,9654
0.0678,1998
0.16,2187
-0.0151,5211
0.107,1125
-0.036,8246
-0.0672,6108
0.155,992
-0.0455,6674
-0.267,10155
-0.0335,5837
-0.0758,7981
-0.125,9388
-0.13,7713
0.0488,3635
0.122,1978
-0.011,5626
0.0649,2854
0.0234,4393
-0.208,8617
-0.0747,8060
-0.246,10106
-0.0665,6462
0.00171,5041
-0.197,7345
-0.0672,6374
-0.0375,6268
0.291,2269
0.0511,3530
0.0198,3475
0.0627,1931
0.11,1956
0.154,1584
0.105,2301
0.0412,3340
-0.00771,5347
-0.0992,8212
0.0344,4414
0.146,1919
0.159,851
0.0777,1473
-0.047,6540
-0.0274,6267
-0.0542,7375
-0.488,9661
-0.393,9882
0.0434,2410
0.0678,2657
0.0617,3700
0.044,3641
-0.0599,6019
0.0636,3026
-0.334,10411
0.253,414
-0.14,8894
0.0585,4224
0.133,2423
-0.114,9117
0.282,189
0.00541,4874
0.274,286
-0.207,9981
-0.033,5833
-0.236,9740
0.046,3687
0.17,1200
-0.0407,6444
-0.0545,7151
-0.134,8668
0.0277,3973
-0.00984,5648
0.0301,4007
0.0862,2155
0.0497,3413
0.0412,3879
-0.0746,6804
-0.161,10142
-0.00552,5806
-0.185,9345
0.125,1311
-0.0363,5639
0.00181,5114
-0.0781,7384
-0.00703,5442
0.0944,2758
-0.0204,6559
0.0125,4347
0.0019,4812
-0.0242,5913
0.0287,3581
-0.0758,7653
-0.0543,7347
-0.309,8016
0.438,199
-0.226,10293
0.219,1020
-0.275,9908
0.052,3135
0.424,1161
-0.0204,5761
-0.478,10397
0.0846,3022
0.154,2163
-0.0482,6317
0.382,180
0.173,1584
0.0506,3700
-0.0373,6893
0.101,1883
-0.586,9876
0.121,2178
-0.117,8901
-0.0747,6621
-0.00213,5418
0.0268,4301
-0.0533,6851
0.4,516
-0.15,7069
-0.115,8751
0.0423,2974
0.266,654
-0.0112,5026
0.253,632
-0.126,7486
-0.0593,7426
-0.123,8812
0.136,1372
0.38,207
0.438,160
0.24,1084
0.0354,2111
-0.0458,7466
-0.0651,7033
0.171,1736
-0.0186,5478
-0.121,7459
0.061,3367
-0.0458,6457
0.00917,4631
0.0241,4034
0.0381,3917
-0.212,9206
0.192,1275
-0.172,9249
-0.4,10196
-0.0266,5837
-0.126,7819
-0.0278,6562
0.133,1480
0.065,2293
0.0598,2494
-0.0343,6831
-0.0994,8649
-0.0501,6250
-0.0386,6487
-0.0577,7362
-0.0666,7804
-0.0363,6579
-0.108,7713
-0.11,6939
-0.05,9058
-0.00273,5430
0.117,2917
-0.255,10202
0.163,578
-0.156,8280
0.00717,4840
-0.166,10036
-0.0146,5682
-0.0131,5243
0.00277,5198
-0.164,9032
0.289,67
-0.0203,6405
-0.0131,5485
0.188,2632
-0.0388,6568
-0.155,7773
0.0474,3913
-0.143,10151
-0.097,9728
-0.0723,7399
-0.265,10300
0.136,3223
-0.154,10336
-0.114,7278
0.27,564
-0.324,9924
-0.226,9643
-0.314,9598
-0.0732,7709
0.0553,1640
-0.0205,5920
-0.237,8617
-0.0983,8213
0.107,2688
-0.0651,7401
0.0213,4494
-0.287,8687
-0.144,7913
-0.0618,6654
0.109,1351
-0.148,8710
0.0946,1634
0.0308,4291
-0.163,9515
-0.385,9720
-0.108,8553
0.0611,3909
0.474,1404
0.059,1685
-0.115,9839
0.0164,4740
-0.209,9205
0.0126,4760
0.117,3683
0.0732,2617
-0.00919,5465
-0.0164,5900
-0.0272,5844
0.0508,3499
0.103,3473
-0.0218,6154
0.0924,1537
-0.0962,6772
-0.106,8494
-0.0825,7202
-0.0983,6132
0.287,303
-0.107,9810
-0.266,9845
0.144,1396
-0.0323,5977
-0.329,10113
0.00319,4967
-0.0586,6971
-0.122,8650
-0.166,8324
-0.0268,6332
-0.0791,7576
0.116,2229
-0.00122,5119
-0.172,7795
-0.0372,6461
-0.0891,7437
0.25,1886
0.212,349
-0.27,10456
-0.031,6272
0.182,2590
0.397,106
0.19,634
-0.0503,6517
0.00476,4753
0.0421,4106
0.0306,4382
-0.0149,5051
0.0731,1794
-0.0595,6548
0.0911,1839
0.174,1217
-0.096,7696
0.117,2006
-0.0526,6279
0.0405,2996
0.0915,2558
0.187,1821
0.155,1292
0.0691,3471
0.175,1351
-0.104,9596
-0.0303,6109
-0.175,8596
-0.0112,5061
0.543,192
-0.372,9342
-0.00302,5079
0.0657,2400
-0.0112,5428
0.334,1428
0.0226,4318
0.0121,4655
0.0485,3216
-0.0882,7738
0.00842,4653
0.045,4036
0.161,1135
-0.278,10461
0.146,1326
0.721,27
-0.0823,8028
-0.0779,6963
-0.0276,5369
-0.042,6382
0.0185,4366
-0.0775,8224
0.138,2648
-0.14,8347
-0.061,6189
0.0511,3458
-0.168,9664
-0.19,9599
0.828,20
0.0854,3049
0.0879,2751
-0.119,4618
-0.0115,5528
0.221,23
0.0326,4111
-0.0921,7250
0.0855,1554
0.154,2355
-0.044,7288
0.066,2600
0.0798,2835
-0.0755,9190
0.158,1512
0.13,1701
-0.00958,6067
0.16,694
0.211,1631
-0.149,10099
0.418,674
-0.0632,8276
0.15,532
-0.0287,6351
0.26,511
0.112,772
-0.118,8295
-0.0141,6195
-0.16,10001
0.0997,1932
-0.26,9184
-0.0432,6192
-0.141,8850
0.0062,4857
-0.196,8406
-0.0905,7151
-0.0389,6522
0.383,732
0.0254,4486
-0.22,9957
-0.0625,6102
0.317,460
0.259,831
-0.144,9055
0.18,703
0.0876,3129
-0.18,9817
0.145,1301
0.197,2849
-0.407,8722
-0.328,9819
0.239,1219
0.042,3511
-0.0803,6763
0.0243,4385
0.0315,3635
-0.157,9342
-0.232,9573
0.0274,3241
0.066,2901
-0.0238,5593
-0.0675,7089
0.0692,3087
-0.0678,5983
-0.0824,8066
0.111,2091
-0.166,8300
0.153,2845
-0.163,7514
0.103,2363
0.311,65
-0.115,9209
-0.0215,5636
-0.0848,7505
-0.0417,3647
0.0175,4433
0.0428,3743
0.0261,4278
-0.249,10413
0.0936,2417
0.0766,2320
0.171,844
-0.1,9280
-0.24,10092
-0.123,7868
-0.057,6436
-0.082,7514
-0.0467,6208
-0.156,8804
-0.0241,5718
0.0631,3184
-0.139,9189
0.205,2208
0.137,1346
0.0506,2382
0.162,618
-0.183,9678
0.0689,2608
0.0984,3224
-0.0271,6098
-0.0895,7755
0.0187,3536
-0.0288,6051
0.163,2051
0.119,3514
-0.0454,6226
-0.11,9252
0.18,975
-0.000941,5147
0.103,2179
-0.0614,8207
-0.0637,7329
0.223,70
-0.0245,5987
0.39,968
-0.189,5280
-0.444,6436
-0.0472,5809
-0.301,9041
0.0297,4089
-0.202,10195
-0.0908,7173
-0.302,9983
-0.384,8280
-0.00177,4989
-0.0779,9093
-0.0816,8561
0.24,242
0.0874,1264
-0.0547,6015
0.00914,4794
0.0667,1891
0.586,663
0.0411,4004
-0.349,10043
-0.241,7472
0.258,205
0.0689,2997
0.0224,4720
0.102,2366
-0.109,8017
0.0317,3951
0.0764,1952
-0.0186,5639
-0.231,9942
0.136,1155
0.0704,2521
-0.436,6130
-0.06,6755
0.0448,3427
-0.227,10434
0.0797,1472
-0.211,9508
-0.064,7137
0.0336,3882
-0.0136,5318
-0.192,9403
-0.0482,6958
0.0112,4517
-0.0253,6135
-0.0348,6730
-0.0828,8462
-0.118,8956
-0.108,6946
-0.0789,8202
0.0192,4327
0.0238,4177
-0.0666,7722
-0.199,8715
-0.121,9766
0.154,506
0.211,1574
-0.0393,8130
0.121,732
0.113,1804
0.489,863
0.2,1848
-0.181,8629
-0.0888,8916
0.105,2415
-0.169,8653
0.136,3197
-0.298,9304
-0.173,8924
-0.0443,6297
-0.00167,5093
1.26,74
0.0713,2719
-0.0493,6039
-0.435,10221
0.104,1463
0.0098,4491
-0.149,8526
-0.143,7898
-0.148,7963
-0.157,8320
0.127,1642
0.0314,4088
0.212,826
0.115,1605
-0.188,8708
0.114,1764
0.0195,4455
-0.106,9349
-0.000852,5200
0.585,57
-0.171,9376
-0.263,10459
-0.0463,6892
0.0032,4997
0.186,1123
0.0853,2865
-0.3,5851
0.101,3043
0.186,467
-0.0778,8375
-0.0993,7783
-0.164,9700
-0.187,6713
0.0668,1859
0.0416,2914
-0.05,7705
0.0876,2931
-0.165,9153
0.0545,4044
-0.261,8495
0.0112,4424
0.0202,4774
-0.226,7932
0.304,266
-0.19,7957
-0.23,10109
-0.0739,6808
-0.166,10314
-0.0386,6539
0.254,1596
-0.0836,9059
-0.0537,6427
-0.0547,6895
0.12,1519
-0.471,10236
0.138,2776
-0.588,10281
-0.144,9218
-0.193,10074
-0.0457,6430
0.156,1863
-0.107,7381
0.301,1478
0.0387,3634
0.00208,4937
-0.179,8929
0.0359,3710
-0.0965,7601
0.00464,4907
0.00363,4963
0.0423,3978
0.0683,2422
-0.0829,7322
-0.0546,6645
-0.0145,5104
0.246,1631
0.0381,3807
-0.0813,7536
-0.0036,5476
-0.133,8424
-0.142,9518
0.00894,4705
-0.0541,7536
0.0957,1451
-0.187,9197
-0.028,5930
-0.0518,6463
0.14,2390
0.279,81
-0.0892,8996
-0.0659,7201
-0.0265,6698
0.206,2653
0.189,2760
0.184,1310
0.0735,2938
0.0039,4196
0.298,656
0.365,115
0.0617,2810
-0.31,6311
0.0316,3887
0.126,1263
-0.123,8164
0.0193,4465
0.269,910
-0.0907,6483
0.112,1401
0.0999,1414
-0.0414,6696
0.249,2024
-0.022,5560
0.621,427
-0.0174,5825
0.221,285
0.337,245
0.141,1334
0.279,104
0.182,1571
0.138,1088
0.0178,4521
-0.175,8087
-0.129,8091
0.0233,4592
1.15,205
-0.0667,7492
-0.0425,6520
0.0358,3577
-0.0268,5677
-0.12,5871
0.0447,3648
0.0655,2787
-0.207,10108
-0.056,6216
0.251,125
0.159,1742
-0.0955,8564
-0.0394,5709
-0.0466,7021
-0.124,8074
0.0778,2877
0.0645,3274
0.063,3549
-0.097,9522
-0.0108,5387
0.144,1229
0.0249,4389
-0.154,6564
-0.115,8486
-0.14,9585
0.0781,1903
0.0322,4188
-0.399,7294
-0.0265,4901
0.176,2482
0.0965,2009
0.408,429
-0.249,9226
-0.117,9127
-0.00243,5026
0.042,4244
0.0456,3259
-0.0599,6780
-0.00424,5348
-0.224,9769
0.0616,3368
-0.0184,5586
0.186,1905
0.0975,1290
-0.0353,6112
0.02,4374
-0.185,8858
-0.101,7050
0.0752,2888
-0.147,9953
0.101,2554
-0.0332,5376
0.0889,1259
-0.204,8200
-0.189,10092
0.0497,1583
0.0466,3157
-0.382,8718
-0.234,8151
0.116,1370
-0.137,9391
-0.0362,6822
-0.0726,6634
-0.195,8877
-0.0863,6239
0.0122,4829
-0.0586,7468
-0.0093,5320
0.23,792
0.0571,3780
-0.157,8974
-0.183,7374
0.109,1749
0.0638,3336
-0.225,9385
0.065,3047
-0.0675,6375
-0.183,8540
-0.147,9357
-0.0546,7173
-0.0287,5918
-0.0118,5581
0.0131,4409
0.0204,4636
-0.156,8681
0.12,1536
0.156,879
-0.111,9098
-0.0276,5986
-0.0699,6709
0.0807,1520
0.00999,4332
-0.102,7433
-0.113,8362
-0.125,6312
-0.0389,6441
-0.104,8606
-0.207,9869
-0.0888,6884
0.0233,4465
0.18,632
-0.0155,6410
-0.153,9419
-0.0588,6676
0.0316,3811
0.0847,2372
-0.137,8092
-0.318,10350
-0.0174,5791
-0.138,9487
0.307,329
-0.161,9338
-0.0197,5463
-0.256,9385
-0.0724,8314
-0.0306,6043
0.132,2460
-0.0585,7890
0.0328,4383
0.0625,2514
-0.125,7755
-0.0841,8157
-0.0546,7106
0.012,4416
-0.137,7399
-0.179,6374
-0.106,7722
-0.0643,6362
0.192,2021
-0.0264,6308
0.0859,3590
-0.262,9563
0.0665,1381
-0.0291,6632
0.0532,2580
-0.056,7063
0.0833,1612
-0.12,7990
-0.291,10433
0.00702,4993
0.123,2223
-0.0753,6629
-0.306,9675
0.15,2126
-0.0504,7403
-0.0483,7395
-0.0516,6268
-0.0864,6721
0.0359,4409
-0.0228,5478
-0.0138,5682
-0.214,8056
-0.162,7639
-0.0934,5449
-0.445,7894
0.059,3988
0.0335,3972
-0.0447,6452
0.0231,4376
-0.218,8128
-0.0969,8177
-0.0698,8186
0.234,347
0.0994,3407
-0.122,7739
-0.00351,5050
0.162,1195
0.0545,3090
0.142,517
0.524,93
-0.0208,5669
-0.255,9569
-0.0805,6176
0.0212,4241
-0.0338,7026
-0.0538,7711
-0.154,8216
-0.235,9370
0.34,1963
-0.0862,7953
-0.0651,9255
0.0529,4055
0.139,2179
-0.256,8756
-0.0639,7648
-0.0274,6407
-0.159,9148
-0.0618,7790
0.157,2003
0.137,1890
-0.0128,5280
-0.09,9725
-0.0661,8166
-0.149,8212
-0.2,9537
0.0243,4256
0.132,2644
-0.0723,8329
0.198,340
-0.104,9097
-0.133,8137
0.27,818
0.25,1032
0.0447,3109
-0.0137,6014
-0.0689,7201
0.275,1286
0.0867,3737
-0.162,7419
-0.0311,7025
0.127,872
0.00568,4945
0.0991,2656
0.18,1167
-0.19,9174
0.0571,2793
-0.0295,5996
0.201,785
-0.0935,7782
-0.0664,7340
-0.0129,5613
-0.133,9707
0.0521,2849
-0.187,8652
-0.0135,4898
-0.414,10202
-0.0405,6286
0.122,1387
0.0259,3132
-0.0628,7159
-0.014,5410
-0.148,8295
0.00636,4849
0.0782,1587
-0.11,7982
0.17,670
0.0952,3012
-0.00264,5111
0.334,207
-0.00837,5564
-0.0752,7873
0.184,1173
-0.0919,8709
-0.115,8155
0.0307,4097
-0.104,9509
0.0373,3427
0.237,638
-0.051,6413
0.098,3437
1.41,203
0.308,343
0.0786,2068
0.332,115
-0.0192,5729
0.118,3665
0.973,329
-0.0934,6759
-0.0898,8929
0.161,1203
-0.167,8797
-0.162,7433
0.126,1485
0.0228,4421
-0.335,9667
-0.155,9007
-0.311,9565
-0.246,8494
0.282,1307
0.192,647
-0.253,10046
-0.0207,5806
0.313,234
-0.0762,7819
-0.0571,6825
-0.0481,8625
-0.00688,5498
0.112,2466
0.309,732
0.0196,4448
0.211,2140
0.0153,4332
-0.0908,7411
-0.0205,5912
0.282,961
-0.364,10089
-0.0653,6946
-0.083,7677
-0.0927,6658
-0.397,10095
-0.16,9236
0.0418,4123
-0.0526,6430
-0.0102,5348
-0.181,9396
0.0298,4047
-0.0594,6476
-0.0352,5737
0.0463,3997
0.046,3336
-0.084,7298
0.407,418
-0.0254,5504
-0.329,9426
-0.00116,5163
0.0628,2712
-0.00736,5339
0.0208,4074
0.33,132
0.107,3811
-0.0348,6553
-0.0203,5717
-0.0378,6206
-0.16,8190
0.000819,5234
0.0567,3110
0.0477,3489
-0.0938,7659
0.0588,3438
0.0894,2220
0.202,158
-0.0475,6496
0.0558,3592
0.0886,2255
-0.245,10443
0.0942,3041
0.371,244
0.095,2635
-0.29,9568
0.0349,3189
0.0165,4016
0.0499,3343
0.114,2383
-0.0229,5660
-0.155,7611
-0.132,8906
-0.0115,5421
-0.0491,7332
-0.000117,4940
0.435,128
-0.27,10064
0.0387,3130
-0.119,9958
0.165,1283
-0.276,10046
0.217,428
-0.0923,7893
0.0211,4123
-0.209,10287
-0.00953,5513
-0.251,8780
-0.0785,6394
0.00127,4949
0.118,714
-0.0486,7893
0.139,2314
0.101,1835
-0.274,8471
-0.0805,6829
-0.162,9521
-0.0429,7782
0.0884,1954
0.0205,4475
-0.125,10352
-0.256,10171
-0.107,8487
-0.0548,6272
-0.00537,5284
0.285,651
-0.0178,5544
-0.257,9428
0.0712,2280
0.0925,1980
-0.216,9887
-0.0845,7999
0.021,4495
-0.0759,6831
-0.0539,6882
-0.0498,7066
-0.115,7578
-0.268,8350
-0.586,8786
-0.148,6112
0.132,505
0.0695,3335
0.000423,5059
-0.0552,6210
0.0186,4687
0.0384,4236
0.0791,1245
0.0856,1706
0.0222,4393
-0.0333,5845
-0.0987,5437
0.525,300
0.0094,4796
0.221,3134
-0.0899,7666
-0.0962,8476
-0.0411,6711
-0.0288,5370
-0.0998,7985
-0.0791,7978
0.121,1902
0.176,2375
0.21,680
0.0983,3621
0.00955,4912
0.0685,3308
-0.00191,4975
-0.0787,7898
0.176,1664
0.161,1232
-0.087,8506
0.00262,4912
-0.288,7841
-0.042,6425
0.226,701
0.0547,2490
-0.22,9492
0.0182,4099
-0.221,9650
-0.265,8303
0.00123,5168
-0.109,7041
0.131,2004
0.0359,4339
-0.261,8702
-0.193,9180
-0.0678,6146
-0.0547,5649
0.0672,3858
0.031,3527
0.238,632
-0.0346,6502
0.167,1495
-0.114,7906
0.292,56
-0.0628,9233
0.186,1263
0.0237,4287
0.14,3207
0.0102,4865
0.0949,2199
0.0344,4289
-0.146,8369
0.0402,3918
0.0132,4679
0.162,3772
0.128,398
-0.165,9205
-0.0501,7213
-0.014,4945
-0.044,6027
0.0357,3951
0.113,746
-0.0381,6959
-0.0527,5929
-0.224,9641
0.0354,3991
0.108,3075
0.0797,1941
-0.00624,5278
-0.18,7887
-0.0136,5380
0.027,4503
-0.116,7996
-0.137,8899
-0.0118,5479
-0.0921,8121
0.0168,4720
-0.00157,5179
-0.209,10380
0.303,151
-0.0884,7852
-0.0818,8752
-0.116,8340
-0.126,8284
0.228,1586
-0.0465,6896
-0.0741,8515
0.0705,3036
-0.157,9231
0.13,2957
-0.0533,7192
0.0872,2383
0.0271,4381
-0.356,10003
-0.0457,6633
0.039,3898
0.333,590
0.175,256
-0.0713,6670
0.000289,5301
0.0436,4556
-0.133,6324
0.808,88
-0.0148,6206
0.0223,4110
-0.0316,5541
-0.0365,6724
-0.511,9198
-0.298,8416
0.217,98
0.0102,4659
0.00474,5018
0.503,68
0.192,2560
-0.261,9402
0.0481,3397
0.0543,2730
-0.235,9123
-0.0188,5642
-0.0451,5712
0.348,947
-0.0453,6195
0.126,1161
0.129,2365
-0.00414,5232
0.236,1465
-0.0382,5611
0.0817,1242
-0.0138,5601
-0.0428,5434
0.0154,4574
0.115,3181
0.00596,4959
0.0273,3251
0.124,843
0.103,2953
-0.145,8661
-0.232,9143
-0.0513,6055
-0.0669,6504
-0.0625,8226
0.0495,3935
0.11,2195
-0.156,9514
0.027,4138
-0.102,8174
-0.0541,8797
-0.113,8545
-0.037,6560
-0.172,8676
-0.207,9766
-0.057,7845
0.0318,4462
0.0105,4565
0.0483,3441
-0.179,9616
-0.0799,6791
0.0976,2200
0.0719,2293
-0.0223,6168
0.0421,3982
0.163,902
0.0897,3116
-0.122,8170
0.0725,2841
-0.0397,6574
-0.123,7307
0.00574,4839
-0.199,8113
-0.511,10385
-0.0275,7238
0.0243,3555
-0.503,8494
-0.344,9471
-0.224,6094
-0.139,7146
0.0392,3863
-0.00868,5682
0.0057,4940
-0.0365,6480
0.041,3906
0.125,2373
0.00572,4890
-0.0351,6882
0.382,650
-0.0407,7136
0.304,447
-0.363,9552
0.0097,4802
-0.144,8651
-0.146,8537
0.0159,4813
-0.146,7852
-0.161,7408
0.158,849
-0.0264,6430
0.174,462
-0.247,9574
-0.0434,5284
0.0416,3818
-0.016,5798
-0.0597,7622
-0.577,9499
-0.00397,4892
0.073,1770
0.0989,1240
0.421,374
0.0806,1819
-0.195,9788
0.176,1753
0.278,714
0.0126,4641
0.0614,3624
0.0684,3853
-0.0697,7480
-0.256,9450
0.161,1644
-0.015,5601
-0.0961,8821
-0.0375,6677
-0.257,9947
-0.0886,8283
-0.165,8408
0.0639,3467
-0.000984,5341
-0.136,8163
-0.07,7743
0.108,2597
0.0303,4000
-0.032,6681
0.158,1119
-0.166,8864
-0.0389,5926
-0.241,9694
-0.0351,6388
0.207,204
-0.0681,8066
-0.127,8465
0.0309,4276
0.0548,3776
0.0715,3923
-0.15,8746
-0.0143,5937
0.219,2169
-0.28,10279
0.0247,4261
-0.36,10113
0.0636,3095
0.0784,3128
-0.334,10217
0.0705,3795
0.0169,4829
-0.0931,8661
-0.186,9833
-0.281,9648
-0.272,6810
0.0905,2388
-0.0107,4868
-0.233,8016
0.227,528
-0.055,8128
-0.0879,8445
0.308,290
-0.0295,6229
-0.0687,7442
0.0565,2745
0.0237,3617
-0.149,8469
-0.093,8401
0.132,724
0.151,1627
0.0931,1330
0.112,2485
-0.117,8121
0.338,254
0.0424,3783
0.11,847
-0.0613,7160
0.104,1544
0.12,1669
0.0986,2245
-0.2,9085
0.0356,3708
0.139,700
-0.244,9365
-0.269,6501
-0.0764,7090
0.0197,4773
0.235,743
0.0576,2130
0.317,253
-0.485,8053
-0.162,7644
-0.00892,5570
-0.101,7688
-0.178,10133
-0.00105,4914
0.144,1716
0.1,1626
0.192,1493
-0.175,7461
0.0698,2176
-0.0375,6443
-0.373,10161
0.000759,5033
-0.252,10139
-0.147,8315
0.112,1735
0.135,1703
-0.00642,5360
-0.285,8687
-0.157,9543
0.26,385
-0.00378,5187
0.0634,2828
0.0867,2637
-0.0173,5911
-0.189,9082
-0.011,5492
-0.0182,5512
0.107,1329
-0.111,8004
-0.0981,8362
0.1,2045
0.246,426
0.283,265
0.12,1825
0.263,679
-0.0122,5497
0.0453,3950
0.648,48
-0.0293,6292
-0.123,8536
-0.139,8962
0.0372,3651
0.0943,3800
0.00977,4594
0.137,1574
-0.119,7486
-0.174,9512
-0.0553,6923
0.111,2732
0.0952,2810
0.0118,4549
0.0414,4054
-0.134,8502
0.137,2706
-0.143,7977
-0.0779,8296
-0.0466,7149
0.151,1989
-0.0369,5751
0.0342,4267
0.304,407
0.251,473
0.024,4324
0.00386,3719
-0.349,9098
-0.0161,3743
0.131,2217
-0.384,7367
0.0656,3948
0.151,1740
-0.038,5606
-0.0995,7577
0.0386,3385
0.101,1746
0.0295,4440
-0.0486,6755
-0.177,9345
0.238,1116
0.0412,3694
-0.0457,7857
0.156,1864
0.208,1065
0.142,2895
-0.213,8637
0.0357,3960
-0.00129,5257
0.0223,4140
0.0022,5035
-0.211,9453
-0.00897,5240
-0.0728,8203
-0.156,9415
-0.134,9135
0.021,4244
-0.00945,5231
-0.133,7734
0.0178,4491
-0.0854,7979
0.235,874
-0.182,9984
0.0981,2478
-0.137,8425
0.169,1386
0.00431,5103
-0.0645,3758
0.0291,4492
0.261,803
0.176,1453
0.0581,2836
0.0677,3169
-0.0519,7874
0.0597,3514
-0.192,8861
0.165,2310
-0.174,9761
-0.0357,8553
0.0225,4329
-0.263,6119
-0.0621,7375
-0.279,10382
-0.0481,7211
-0.0625,7838
-0.116,7849
0.0222,3812
0.112,613
0.404,463
-0.131,8759
-0.128,10277
-0.0476,6781
-0.269,7650
0.198,1479
-0.299,8826
0.644,101
-0.0353,6121
0.0251,4230
0.0346,4212
-0.0574,6122
-0.0489,6292
-0.127,7302
0.153,705
0.918,925
1,920
-0.124,7971
-0.172,8951
-0.0339,5698
0.0419,2264
-0.00594,5168
0.00447,4693
0.0526,3644
0.0342,4080
-0.131,7462
0.0345,4289
-0.11,7258
0.0373,3801
0.357,2495
-0.222,8692
-0.214,9645
0.0552,3751
0.128,1700
0.0739,3589
0.085,2338
-0.0107,5406
0.177,1981
0.39,104
-0.0674,8266
0.0862,2907
-0.244,9842
-0.161,9462
-0.0836,6215
0.00186,4955
-0.0109,5968
-0.00656,5550
0.0488,3625
-0.00556,5313
0.282,1097
-0.229,9748
-0.0298,6775
-0.137,9510
0.0118,4852
0.0221,4441
-0.0609,6243
0.15,2741
-0.00756,5428
0.0825,2749
-0.0691,7107
0.129,2123
-0.307,8614
-0.126,7709
-0.0351,6389
0.02,4193
-0.0793,7566
-0.0468,6303
0.526,134
0.0104,4791
-0.0518,6998
-0.13,8477
0.039,3766
0.0731,3379
-0.298,8778
0.173,820
-0.0571,7222
-0.0996,8163
-0.222,9794
0.146,1630
-0.0109,5664
0.00818,4793
-0.0178,5902
-0.0425,8007
-0.157,8719
0.185,1037
-0.00825,5401
-0.177,7957
0.256,614
0.0929,2427
-0.0839,7336
0.0341,3950
-0.214,9023
-0.344,8882
-0.392,9809
-0.203,9240
-0.224,8131
-0.531,9433
-0.114,7197
0.104,3003
-0.0809,6530
-0.158,8871
0.252,786
-0.402,9896
-0.0647,7033
0.145,837
0.306,129
0.0338,4333
-0.0279,6107
-0.16,9386
0.265,605
-0.092,8070
-0.00866,5531
-0.104,7794
0.0774,2225
0.421,2088
-0.106,7144
0.118,998
-0.189,9957
0.173,1762
0.412,882
0.0326,3617
-0.279,10377
-0.0286,6356
-0.266,9425
-0.031,7532
0.254,521
0.204,2781
0.0323,4205
-0.145,8880
-0.192,9466
-0.101,7552
0.198,718
0.0215,4118
-0.0572,7289
0.0731,2461
0.0754,2000
0.113,1291
0.172,764
-0.0428,6273
-0.199,8283
-0.221,6280
-0.181,10186
-0.331,10296
-0.0149,5714
0.254,876
0.278,588
-0.0961,7325
-0.078,7818
0.0453,4080
0.053,2923
-0.0307,5691
-0.0548,6162
0.0461,2830
-0.0242,6169
0.194,721
-0.239,9528
-0.0494,5645
0.00676,4850
-0.0608,8324
-0.0681,7102
-0.267,4186
-0.126,4235
-0.15,5029
0.221,1167
-0.338,8498
0.158,2918
0.12,2535
0.078,2314
0.217,1041
0.165,2034
-0.114,9070
0.00755,4843
-0.112,7122
0.0905,3896
0.173,2307
0.646,2057
-0.373,6695
0.236,2137
-0.24,8998
-0.0978,8511
-0.417,9776
-0.0721,6460
0.0354,3340
0.0123,4419
0.02,4666
0.0548,3363
-0.146,9352
-0.0981,5921
0.122,242
-0.0461,6682
-0.0186,5719
0.531,243
0.0774,3229
-0.165,8479
-0.0793,7339
-0.103,8289
-0.274,8502
-0.116,6237
1.46,6
-0.177,9394
0.198,868
-0.0188,6047
-0.156,8389
0.179,1004
0.0805,2727
0.12,2287
-0.0996,9791
-0.0916,8754
2.95,346
0.168,1345
0.0611,3905
-0.0685,6363
0.0862,2460
-0.00948,5446
0.0963,1553
0.0565,3017
-0.27,8119
-0.0966,9960
-0.234,10213
0.08,1925
-0.0216,6003
0.413,1295
0.571,635
-0.0288,5961
-0.15,8529
0.0237,4226
0.0344,3590
0.316,549
-0.246,10227
-0.0772,7070
-0.0353,6979
-0.143,9980
0.0458,3493
0.0281,4227
-0.179,9327
1.01,407
0.0218,4117
0.0116,4673
0.0511,3587
0.447,305
0.334,653
-0.155,7274
-0.0554,7238
0.0834,2591
0.0212,4665
0.018,4831
0.209,1861
0.119,3567
-0.217,10189
-0.0262,6415
0.124,2098
-0.057,6444
-0.00845,5610
0.0299,4379
-0.0835,9300
-0.00815,5373
-0.0628,6432
-0.00924,5476
0.0202,4531
-0.271,10020
-0.34,10297
-0.0866,8373
0.154,1476
-0.122,10135
-0.223,7266
-0.0439,6314
0.0669,2416
0.073,1921
-0.0369,6114
-0.0297,5896
-0.087,5347
-0.388,10302
0.0617,2852
0.0276,3487
-0.0238,6081
0.0792,3501
-0.927,10303
0.0312,4179
-0.138,7810
0.0428,2863
0.222,2046
-0.779,9976
0.221,2968
-0.316,10434
0.503,1145
0.0491,3682
-0.0762,7220
0.244,1812
-0.01,5386
-0.0449,7228
0.0186,4274
-0.113,6839
0.0904,3105
0.0222,4737
0.14,1564
0.0401,3726
0.186,222
-0.0682,7712
0.212,833
0.161,563
-0.136,8942
-0.0192,5624
-0.0841,7304
-0.0652,5859
0.201,647
-0.372,8087
-0.32,8856
-0.197,9438
0.0482,3650
0.3,128
0.108,1922
-0.175,9207
0.234,749
-0.00464,5388
0.311,850
0.0911,2778
-0.0285,6240
0.498,276
-0.0126,5478
-0.321,9296
-0.216,9368
-0.246,7996
-0.349,9589
0.0321,3342
0.0964,2258
0.16,1084
0.12,1526
-0.00381,5123
0.116,2696
0.0862,3094
0.316,668
0.0153,4684
0.128,1637
-0.246,8541
-0.00922,5287
-0.155,8883
-0.096,8051
0.0654,2573
-0.0565,6501
-0.0178,6030
-0.186,9737
0.818,12
-0.0145,5263
0.151,579
0.0782,2016
0.123,2091
0.379,589
-0.249,10074
-0.102,7321
0.0733,918
0.0743,3175
-0.231,9800
0.0257,4513
0.0338,4049
-0.0882,7474
-0.236,9810
-0.0467,6787
-0.317,9465
-0.0718,6491
-0.0787,6415
0.0291,4431
0.147,622
-0.0516,7417
0.0406,4112
-0.133,7945
-0.419,10183
0.0952,3493
-0.412,9439
-0.0298,6283
-0.0511,6577
-0.117,8737
0.796,736
0.65,814
-0.0165,5955
-0.0928,8375
-0.119,8394
0.133,1449
-0.0786,7846
-0.254,9436
0.0495,2942
0.00357,5178
0.0727,2415
0.22,873
-0.607,8766
-0.0278,5560
0.0454,4006
-0.00942,5490
0.00627,4909
-0.34,10235
-0.207,8537
0.102,2308
0.0622,2170
-0.0845,8389
0.189,2997
-0.258,8224
0.00335,4555
0.0204,4209
-0.0399,6709
-0.351,9871
-0.204,8668
-0.0293,6174
-0.107,6875
0.216,1235
0.478,50
0.0433,2548
0.149,2984
-0.123,8806
0.0446,3614
0.208,1686
-0.0318,6761
0.0927,2913
-0.168,9473
-0.203,9474
-0.11,8565
-0.0195,5617
-0.169,9410
0.21,1271
0.017,4331
-0.0751,7457
0.249,1281
-0.0821,9291
0.275,272
0.0531,3030
0.081,2864
-0.00331,5132
0.122,3089
0.0338,4043
0.037,3349
0.0336,3848
0.145,1960
-0.09,6944
0.0292,4478
0.156,1077
-0.171,9856
0.115,1839
-0.0985,7203
-0.00203,5328
0.0524,2541
-0.161,9511
0.06,3187
0.157,631
-0.056,6108
-0.389,10274
-0.36,9974
0.121,2367
-0.0451,6408
0.0451,2845
0.317,1042
0.129,2886
0.234,990
-0.287,9325
-0.0604,7542
-0.152,10186
-0.38,10404
-0.00278,5166
-0.00948,5202
-0.356,10249
-0.165,9633
0.0944,2476
-0.125,8188
0.136,2546
-0.147,9531
-0.15,8612
-0.0161,5899
-0.0436,6799
-0.0403,6052
-0.00947,5282
0.112,3105
0.0246,4625
-0.381,10177
-0.128,9377
-0.288,9682
-0.148,7935
-0.0568,6337
0.0861,2308
-0.0735,7661
-0.213,10444
-0.0587,6377
-0.0226,5293
-0.0285,6167
0.438,261
-0.0672,7542
-0.123,10011
0.0379,4155
0.147,2297
-0.0815,7573
-0.181,9440
-0.252,10354
0.0248,3654
-0.257,10246
-0.0693,7520
-0.275,9232
-0.0141,5585
0.137,1037
-0.0452,8012
-0.223,9838
0.125,1071
-0.0907,7514
-0.114,4779
-0.0655,7965
0.206,454
0.0941,1696
-0.045,6127
-0.18,8342
0.0466,3499
-0.0621,7361
-0.00229,5114
0.162,1599
-0.233,7225
-0.0287,5567
0.154,1716
-0.0823,8166
-0.00654,5210
-0.139,7733
-0.182,8345
-0.109,8705
0.154,3408
0.139,1801
0.129,947
0.0278,4365
-0.107,8114
0.0976,2201
-0.171,9133
-0.0673,8663
0.168,935
-0.0996,7476
0.0265,4182
-0.282,9670
-0.148,7242
-0.0225,6029
0.149,659
0.293,1427
0.184,1298
-0.0924,7202
0.119,3359
-0.125,9325
0.153,235
0.145,2349
0.206,1910
0.381,189
0.162,1046
-0.0767,7736
0.0207,4152
0.157,1196
-0.185,8638
0.134,2161
0.125,1600
0.0077,4557
0.349,1013
0.0123,4619
0.496,54
-0.505,9166
-0.0138,6157
-0.214,10039
-0.0509,7196
0.0149,4595
0.00606,4795
0.183,1586
0.0386,3737
0.038,3361
-0.0876,6878
-0.0675,6049
0.313,788
-0.0736,6787
-0.0437,6096
-0.0794,7344
-0.0278,5915
-0.147,9253
0.179,1459
-0.0214,5631
-0.00206,5426
-0.0439,7563
0.0529,3982
-0.208,9837
-0.174,9074
-0.263,8472
0.066,2324
-0.0363,7148
0.209,1322
0.161,841
0.411,257
0.303,1298
-0.0944,9572
0.0105,4489
0.0677,2052
-0.3,10102
-0.117,8030
-0.157,10066
0.0957,2381
-0.0725,7475
-0.184,9217
-0.0939,8944
0.654,817
0.0519,3585
0.0174,4444
0.0036,4976
-0.075,6903
-0.138,9328
-0.0682,6775
-0.102,7065
0.0496,3011
-0.0355,6144
-0.125,7612
-0.103,7540
-0.407,9845
-0.268,7574
-0.161,9582
-0.0873,7669
-0.0964,5769
-0.188,8164
-0.253,9628
-0.119,7864
0.138,1156
0.0819,2350
0.135,1751
-0.0434,7230
0.0103,4317
0.209,810
0.00806,4789
-0.171,10123
-0.452,6735
-0.0978,3893
-0.248,7415
0.744,1138
-0.344,7766
0.162,455
-0.311,8714
0.0908,2915
0.18,802
-0.0122,5793
0.0465,3521
-0.0507,6908
-0.0147,5570
0.127,2527
0.188,1440
-0.308,5816
-0.0399,6616
-0.0514,7515
0.0939,2387
-0.0433,6233
-0.0211,5533
-0.187,8810
0.106,1879
0.0258,2668
-0.352,8264
-0.00752,5041
-0.456,9659
-0.124,8030
0.0335,3699
-0.0236,6720
0.139,2747
0.0108,4280
-0.0998,8454
-0.107,8604
0.084,1323
0.0234,1638
0.137,1113
0.112,1407
-0.0234,5301
0.107,1331
-0.0121,5650
0.25,1412
-0.0121,5255
0.0668,3752
-0.073,8021
0.0654,3440
-0.0886,8037
-0.0796,6510
-0.0172,4999
-0.142,7612
-0.163,7946
-0.063,7512
0.0824,2027
0.0134,4436
-0.224,9336
-0.0729,6606
0.177,2522
0.304,2583
0.0204,4259
-0.0376,7335
0.0897,2992
-0.156,7499
-0.0593,6913
-0.411,9415
-0.117,8111
0.00716,4867
-0.0185,5700
0.00315,4694
0.0603,3289
-0.276,9467
-0.162,9435
-0.115,8299
-0.0555,7586
-0.0522,6293
-0.0796,7457
-0.0768,6863
-0.022,6016
0.0822,2189
-0.0283,5736
-0.097,7551
0.0221,4736
-0.0254,5185
-0.0962,9893
-0.158,8955
-0.133,9482
0.169,915
-0.145,8142
0.101,3193
-0.046,6503
0.263,1240
0.0524,3628
0.148,2610
-0.0271,5282
-0.00478,4817
0.208,158
-0.0391,7661
-0.101,6562
-0.0886,9516
-0.25,8566
-0.117,7323
-0.13,8168
-0.239,9889
0.028,3973
0.105,2835
0.702,91
-0.061,7636
-0.0229,5885
0.0585,1717
-0.224,9949
-0.147,8104
-0.0745,6854
0.029,4372
0.00564,4979
-0.148,9228
-0.254,8874
0.0885,3390
0.15,185
0.274,617
-0.00859,5561
0.109,1038
0.046,3548
-0.0166,5545
-0.0189,5481
-0.142,7790
0.0673,3291
-0.0932,9420
1.69,748
-0.482,10297
-0.119,9421
-0.176,7066
-0.0995,8389
0.13,1773
0.019,4645
0.035,3927
0.143,2473
0.284,111
0.118,2370
-0.108,8596
-0.105,7805
0.0136,4356
-0.118,7244
-0.152,8192
-0.137,9701
-0.251,10356
0.185,1513
-0.0853,8418
-0.0481,6237
-0.0215,5750
-0.21,9118
0.05,3397
-0.0527,7231
-0.05,6714
0.107,2398
0.171,1962
-0.0595,6293
-0.0959,7385
0.315,195
0.313,1883
0.0178,4392
0.0854,3338
-0.0962,7673
-0.0383,6227
-0.118,8720
0.334,871
0.0862,2623
-0.121,8501
-0.19,9896
-0.0931,7983
-0.302,6122
-0.35,8795
-0.432,10409
-0.397,6114
-0.14,7339
0.114,1789
0.105,3192
-0.0853,7013
-0.059,7497
-0.0947,9361
-0.0777,7612
-0.411,10079
0.0397,4291
-0.143,9179
0.0478,2052
-0.0648,8424
0.0603,3682
0.014,4429
-0.0345,6550
-0.0671,6760
0.0733,3271
-0.0215,6153
-0.028,4999
-0.0938,8234
0.113,1183
0.0633,3801
-0.0283,5764
0.0123,4450
-0.224,8038
-0.134,8465
-0.0679,6893
-0.0768,7572
-0.034,6013
-0.0857,7314
-0.0549,6040
0.0544,2851
0.0477,3428
-0.236,8412
0.0998,1422
0.0141,4646
0.0982,3219
-0.141,7589
0.126,3072
0.138,2608
0.021,4200
0.0167,4788
0.187,1899
0.141,2485
-0.255,10124
0.0403,3718
0.193,461
0.0483,2887
0.00682,4696
-0.0183,5397
-0.307,8659
0.0303,4349
-0.11,8349
-0.127,10203
0.334,61
0.667,46
-0.0431,6024
-0.0107,5503
-0.143,9781
-0.207,9997
-0.0396,6294
0.104,2235
-0.164,8408
0.0888,2633
-0.142,9802
-0.084,7967
-0.11,6997
0.046,3602
0.157,2246
-0.249,9996
0.0672,3148
0.0382,3817
0.129,1705
0.0839,1636
-0.137,9258
0.111,551
0.117,2284
0.0076,4731
0.0241,4533
-0.0111,5884
0.0267,4133
-0.2,9010
-0.0042,5302
-0.0729,7149
0.0935,2051
0.0116,4483
0.0599,3483
-0.109,7717
0.0406,3805
-0.0315,5824
-0.186,9425
-0.306,10240
0.0698,3107
0.0245,4493
-0.111,7481
0.0851,2934
0.128,2480
0.000235,4981
0.124,2603
-0.814,9985
0.12,1076
-0.0222,6144
-0.0348,6553
0.0178,4508
-0.0387,6349
-0.0164,5141
-0.0605,7791
-0.107,9222
-0.147,9466
0.281,524
0.533,932
0.209,1688
0.0235,4077
0.187,419
0.068,3218
-0.0676,7521
0.344,634
0.0915,3060
-0.0383,6081
-0.129,9968
-0.113,8528
0.177,1287
0.0538,3450
0.178,512
-0.0202,5194
-0.154,8438
0.155,1971
-0.132,7318
-0.228,6516
-0.143,6651
-0.12,8977
0.0486,2514
-0.0182,5416
0.12,2981
-0.192,10240
-0.189,7891
0.0105,4775
0.0754,1898
-0.147,8267
-0.0625,7235
-0.0198,5458
-0.038,5451
-0.0248,5246
0.034,4133
0.284,869
0.552,173
0.169,712
-0.0456,6538
0.00382,4965
0.0216,4156
-0.201,8920
-0.101,8285
-0.054,6417
-0.0924,7980
0.155,97
0.0544,2200
0.0309,4032
-0.14,8674
0.338,557
-0.0877,8178
0.052,3267
0.0144,4311
-0.000142,5081
-0.177,9503
-0.00254,5285
-0.144,6544
0.135,1250
-0.00455,5341
-0.106,6674
-0.0705,5896
0.158,999
-0.0342,5939
-0.0878,8401
-0.0205,6270
0.248,1021
-0.134,9366
-0.0047,4958
0.0315,3953
-0.0281,5894
0.186,1045
-0.0305,6330
0.144,1798
0.0163,4010
0.164,506
0.0987,1894
-0.0117,5445
-0.0621,7447
0.121,2659
-0.161,7745
-0.605,8701
-0.129,9751
0.128,861
-0.174,9727
-0.0094,5332
0.286,853
-0.0109,5357
0.0717,2864
0.0429,3391
-0.275,10307
0.0895,2665
0.359,1092
0.436,61
0.0588,2319
0.0748,2661
0.122,1767
0.103,1920
-0.12,7288
-0.0353,6750
-0.109,9109
-0.0852,7244
0.0182,4346
-0.087,6853
0.0886,2239
0.331,407
-0.104,8103
-0.044,6535
-0.0822,6748
-0.0989,7051
-0.0702,6929
-0.067,5258
-0.018,6007
0.0593,2683
0.104,2958
-0.452,8350
0.122,1751
0.13,3365
-0.0489,6059
-0.0481,7138
-0.224,7900
0.0732,3508
-0.108,6615
-0.0298,5568
-0.145,9769
0.255,400
0.434,397
0.431,536
0.54,89
-0.0466,6818
-0.0249,6325
-0.0309,7152
-0.0603,6328
-0.228,8787
0.281,415
-0.087,7529
-0.0433,5417
0.0487,2388
0.0776,3063
0.145,1463
0.0336,4256
-0.0993,8140
-0.0957,6352
-0.137,9898
-0.000857,4795
-0.312,9626
-0.313,7148
0.217,675
0.12,1664
-0.248,10099
-0.35,10293
-0.175,9093
-0.263,9404
0.000288,5004
0.083,1829
0.0519,3185
0.225,901
0.0991,2586
-0.0177,5364
-0.0311,6299
-0.0183,6195
0.0352,3668
-0.109,8212
0.00843,4805
0.275,2735
-0.0431,6267
0.0388,3590
0.0983,1698
-0.232,9108
-0.0884,7964
-0.0842,7197
0.243,169
0.116,1254
-0.165,6835
-0.0781,7308
0.143,2765
0.0823,2937
-0.16,9012
-0.0329,6049
-0.0579,6798
-0.00714,5171
0.0239,3664
-0.245,9814
-0.0542,7374
0.0935,2259
-0.018,6110
0.00159,5117
0.085,1730
0.0303,4308
-0.158,9069
0.023,4224
-0.0711,8665
-0.173,9112
-0.197,9434
-0.0774,7003
0.201,874
-0.178,8747
-0.126,9326
-0.256,8896
-0.0116,5175
-0.0124,5595
0.0614,3983
0.133,1837
-0.0492,7527
-0.0305,5851
0.105,3199
0.141,1052
-0.164,7301
-0.21,9954
-0.00893,5699
0.0104,4483
-0.349,8413
-0.147,8067
-0.385,10208
0.055,1364
0.0753,2765
0.161,1464
-0.229,9809
-0.0356,6008
0.191,1101
-0.00617,5293
-0.225,10075
0.239,473
-0.00142,5153
-0.00683,5425
-0.213,9696
0.0858,2221
-0.174,8823
0.183,2141
0.54,1495
-0.115,5880
-0.113,3956
0.11,1799
-0.0546,7800
-0.0986,7857
-0.321,10084
0.0667,3065
0.0601,3358
-0.0115,5375
-0.219,7577
-0.0579,8200
-0.0611,6763
-0.068,8350
-0.174,9702
-0.0243,5809
0.00251,4944
0.0528,3745
0.0493,3609
-0.0889,8157
0.26,2290
-0.153,9545
-0.227,9397
-0.163,5917
-0.0701,6539
-0.0538,6808
-0.249,9439
0.0887,2686
-0.207,8385
0.311,1631
-0.0424,6350
-0.0373,5670
0.183,504
0.102,829
-0.0195,6007
-0.181,9635
0.0434,4158
0.609,916
0.199,41
-0.0314,6267
-0.016,6421
-0.0811,6874
0.0316,4191
-0.188,5183
-0.231,7983
-0.0371,6643
-0.182,9271
0.14,2315
-0.0205,6174
-0.329,9867
-0.235,9123
-0.252,10181
-0.0967,7607
0.0336,4197
0.03,4222
0.084,2988
0.0608,3637
-0.108,9497
-0.175,10333
0.0221,4504
0.0314,3686
-0.0821,7329
-0.0323,5984
0.0748,2858
-0.245,9380
-0.00482,5159
0.222,655
0.126,2464
-0.26,10128
0.117,1073
0.22,954
0.326,903
-0.141,8570
-0.102,7162
-0.48,10005
-0.0579,6806
0.0284,3399
0.132,936
0.0701,2014
-0.321,10340
-0.106,8598
-0.0485,6746
0.049,3339
-0.565,9672
-0.284,7980
0.151,1276
0.458,2197
0.0724,3253
-0.0284,7609
0.108,1828
0.025,4121
-0.0658,6157
-0.053,7305
0.162,1011
-0.294,10258
-0.0364,6070
-0.0352,6397
0.0568,3717
-0.073,8459
0.00863,4706
0.133,486
0.159,1995
-0.023,5351
-0.0999,7856
0.143,1493
0.00825,4872
-0.0815,7028
0.0331,4175
0.562,263
0.0116,4753
0.188,1661
0.0298,3930
-0.0268,5923
-0.0317,6195
0.102,3612
0.279,494
-0.202,8153
-0.0944,9035
0.0317,3882
-0.249,9519
-0.0987,7874
-0.0398,6812
0.673,378
0.00539,4770
-0.0818,9620
-0.0701,6838
-0.235,9236
0.0689,3483
0.479,724
-0.122,8879
-0.0607,6529
0.0439,4243
0.201,1224
3.39,57
0.0975,3365
0.0966,2137
0.0282,4160
0.119,2502
-0.0243,5777
-0.0216,5784
-0.0961,6918
0.00962,4757
0.0543,2045
-0.286,9899
-0.0843,8021
0.024,4517
0.419,401
-0.0337,6432
-0.129,9136
-0.165,9680
-0.0935,7742
-0.154,10052
-0.161,9973
0.0692,3073
0.0089,4615
-0.14,8009
-0.0593,6525
-0.199,10265
0.08,3607
-0.0355,6735
0.071,2891
0.276,968
-0.0986,9208
-0.0758,5465
-0.0604,6675
0.0458,3317
-0.034,6692
0.169,3207
-0.315,9715
-0.181,7314
0.0286,3675
0.205,84
0.017,4597
0.136,1290
-0.112,7943
0.0958,3008
-0.288,10404
-0.00664,5094
-0.0679,7462
-0.0795,6649
0.486,462
-0.112,7807
-0.157,8058
0.0311,4249
-0.19,5902
0.198,1996
0.143,2408
0.14,2504
-0.189,7853
-0.151,6746
-0.279,7560
-0.114,7110
-0.0269,4994
0.153,1366
0.00395,4839
0.236,58
-0.114,8403
0.0276,4328
-0.234,9531
-0.11,8091
0.00348,4970
-0.00531,5068
-0.175,7024
0.0449,3931
-0.225,10117
-0.0237,6054
0.0855,3314
0.0107,4867
0.109,2331
0.246,100
-0.0548,6252
-0.0382,6587
-0.16,9632
0.0496,1030
-0.116,6952
-0.00159,5325
0.172,1817
0.196,1084
-0.092,8861
0.135,1230
0.304,285
0.00643,4681
0.0304,4114
-0.0761,6604
0.0903,1729
-0.147,9375
-0.121,4203
-0.144,8881
-0.0666,6580
-0.149,9609
0.222,886
-0.0469,6650
-0.00432,5241
0.254,708
0.137,2969
0.163,3141
-0.00734,5661
-0.0733,7052
0.162,646
-0.331,9932
-0.347,9866
0.00222,4941
-0.0794,6772
0.135,1603
0.122,1981
0.0697,3634
0.238,114
-0.0554,6217
0.11,1588
0.155,2060
-0.0548,6544
-0.209,9294
-0.0553,6701
-0.202,9562
-0.0491,6476
0.115,1216
0.206,845
-0.225,9054
0.122,1638
-0.15,9013
-0.0409,7315
0.0473,3437
0.169,427
0.154,2145
-0.267,9072
-0.0958,6793
0.0835,2147
-0.00594,5205
0.00957,4730
0.207,1415
0.125,2076
-0.133,6948
0.0428,3430
-0.0706,7343
-0.0305,6254
-0.149,8982
0.0689,2549
-0.0646,7285
-0.0124,5563
-0.228,9327
0.492,279
0.0372,4150
-0.0334,6242
0.221,1834
-0.00659,5346
-0.0843,7246
-0.295,9662
0.136,1126
0.0833,3373
0.0377,4296
-0.0787,7758
-0.0734,7478
-0.117,8394
-0.0295,6150
0.323,38
0.0234,4336
0.173,802
0.101,1267
-0.31,4653
0.101,2586
-0.259,9908
0.196,1271
0.107,1744
-0.135,7912
-0.313,10376
-0.126,7127
-0.206,10288
0.0317,3476
-0.102,9527
-0.0238,6454
0.00549,4943
-0.0455,6876
0.232,1381
0.623,181
0.0565,2862
-0.0358,6204
0.186,993
-0.273,10091
-0.000564,4923
-0.0424,7875
0.00137,5159
-0.0784,7941
-0.253,7610
-0.0561,9070
0.0648,1640
0.0526,2748
-0.00494,5159
-0.107,5524
0.207,930
-0.0156,6462
0.043,2093
-0.849,10090
-1.42,10199
0.05,2891
-0.12,9153
0.213,1340
0.17,1103
-0.0865,6839
0.482,85
-0.134,8703
0.0754,2749
0.0701,3010
-0.274,9447
-0.118,8078
0.0299,4045
0.185,1160
-0.0397,7383
-0.0913,8692
0.132,2341
0.108,3590
-0.0393,5888
-0.137,8183
-0.445,10393
-0.0584,8105
0.00371,4809
0.258,736
-0.493,9948
0.0802,3536
0.00324,5004
-0.038,6032
-0.0319,6378
-0.0559,7533
0.194,1101
0.241,1108
0.00916,5063
0.108,1379
0.0468,3630
0.152,1644
-0.0205,5990
0.088,3527
-0.0529,7858
-0.0522,7263
-0.017,5549
0.162,1044
0.322,1224
-0.00149,4994
-0.115,9539
0.0967,2133
-0.0181,5896
0.00542,5006
-0.122,9132
-0.152,8671
-0.0516,6424
-0.00756,5967
-0.102,8352
0.154,1127
-0.0179,5230
0.106,1273
0.0436,2644
0.0536,2988
-0.0721,7544
0.773,468
-0.051,7199
0.051,3974
-0.154,10238
-0.0589,7729
0.15,1311
-0.199,9397
-0.0665,7248
-0.13,8218
-0.112,7132
-0.0642,7259
0.271,1028
0.0351,3725
-0.0734,6360
-0.0898,5593
-0.0219,6103
-0.241,9719
0.169,745
0.173,1173
0.201,745
-0.0861,7479
0.153,1316
0.116,722
0.0743,2678
-0.0805,7282
-0.0477,6457
0.0891,2595
-0.00667,5449
0.08,1924
-0.0133,5317
0.0876,3528
-0.024,5608
-0.0173,5773
0.112,1844
0.129,1722
-0.18,9417
-0.239,8702
0.342,685
0.141,1678
-0.00228,5028
-0.343,6916
-0.518,8731
-0.201,9306
-0.0454,4992
0.026,3789
-0.106,7236
-0.341,9890
-0.147,9061
-0.0786,8713
0.135,1782
-0.0152,5415
0.243,2116
0.0756,2487
-0.0503,6148
0.0207,4426
-0.0233,6475
-0.187,10201
-0.0296,5145
-0.185,8485
-0.13,9982
-0.0792,7704
-0.0187,5582
-0.0636,6989
-0.123,6676
0.245,861
0.0697,3159
-0.135,8749
-0.103,8134
-0.138,9394
0.126,2006
-0.191,9223
0.0996,2884
-0.0936,7279
-0.0889,7573
-0.282,5431
0.067,3149
-0.309,10038
-0.153,7164
-0.144,9980
0.0703,2590
0.0225,3932
0.0267,4158
-0.0894,7265
-0.088,7248
-0.171,8093
0.0483,3603
0.197,129
0.00411,4805
0.199,2254
0.0752,2756
0.0417,3353
0.141,1348
-0.139,9148
0.0746,3449
-0.434,9711
-0.0129,4805
0.21,1334
0.094,886
-0.145,9099
-0.265,6790
0.0339,4059
0.144,924
0.0585,2744
-0.189,9124
-0.0947,8514
0.116,3480
0.0499,3843
-0.0685,7339
0.0774,2548
0.0957,2301
-0.0676,7208
0.21,1317
0.665,149
-0.0935,9714
-0.14,8155
-0.183,9619
0.0181,4328
0.714,90
0.13,1864
-0.0813,8638
0.0988,1571
0.00456,4742
-0.212,9864
-0.182,8842
0.0782,3703
-0.0751,7226
0.193,728
0.106,2433
-0.077,7799
0.07,3526
-0.197,9372
-0.025,5969
-0.212,10217
-0.136,7812
-0.294,10385
0.148,1557
-0.131,8626
-0.0486,6960
-0.0795,8618
0.182,2183
0.807,1148
-0.495,10084
0.266,2176
0.0501,3134
-0.118,9260
-0.181,9449
-0.021,5603
0.101,2299
-0.172,7757
0.00448,5000
-0.0588,6863
-0.0967,7513
0.0542,3103
0.247,599
-0.335,10442
-0.0111,5442
-0.358,10440
0.094,2824
0.000961,4883
-0.0851,7173
-0.199,9396
-0.0888,8710
-0.0842,9777
-0.382,10172
-0.0588,7065
0.162,1537
-0.159,7709
-0.0646,6896
0.0268,4586
0.16,1078
0.0508,3143
0.258,1147
0.0337,3742
-0.112,10159
-0.31,8580
-0.168,9813
-0.103,6793
0.0882,2594
0.173,130
-0.0672,8245
-0.072,7458
0.134,1547
0.0317,4083
-0.249,8100
-0.0336,6613
0.0851,1860
-0.103,9029
0.456,124
0.285,2253
-0.364,9994
-0.222,8791
0.0985,1699
-0.0804,7094
-0.069,8262
0.0395,4030
-0.00624,5165
-0.00186,4987
0.127,448
-0.0473,6570
-0.0239,5871
-0.0406,6390
0.0644,3033
0.16,355
0.057,2868
0.0637,3941
0.0688,3305
0.13,2661
0.177,2307
-0.257,10150
0.338,313
0.407,1873
-0.287,8737
-0.408,7397
0.15,3251
0.018,4794
-0.0433,6552
0.113,1767
-0.14,9104
-0.126,6988
-0.137,6397
-0.0489,6801
-0.212,7681
-0.0373,5679
-0.109,7133
0.151,1832
0.204,2099
0.141,655
-0.013,5543
0.0653,3081
0.0598,3018
0.0536,3597
-0.119,8691
0.0346,4020
-0.155,8434
-0.17,7913
-0.171,8979
-0.0754,5365
0.0366,4328
0.0215,4300
-0.139,10110
0.125,1976
0.187,1067
-0.123,6294
-0.0772,7421
-0.178,10035
0.0444,3696
-0.00404,5037
-0.149,8132
0.154,1356
0.2,548
-0.0379,6744
-0.0338,6500
-0.0352,6073
-0.124,8349
-0.0564,8217
-0.123,8580
0.0237,3761
-0.0795,7537
0.0266,4155
0.0805,2977
-0.00835,5110
-0.223,9796
0.032,3291
0.205,172
-0.0628,7485
0.0292,4057
-0.334,8475
-0.161,7928
-0.0849,8602
-0.131,9455
-0.118,8597
0.066,3614
0.0708,2166
-0.059,5838
-0.0373,7339
0.0304,3013
0.0972,3298
0.0211,4435
0.0147,4726
0.119,2402
-0.141,8553
0.0503,2937
0.234,483
-0.0484,6290
-0.188,8303
0.221,301
-0.0366,7440
-0.189,8579
-0.201,7644
-0.0223,5937
0.186,2524
0.23,3026
-0.0762,7896
0.118,1322
0.12,2821
0.648,210
-0.0635,6217
-0.0717,7183
0.0611,1782
0.0329,4011
-0.111,8379
-0.0947,5701
-0.109,8326
0.0256,4414
0.123,943
0.00797,4627
-0.141,8091
0.13,1100
-0.00735,5181
-0.102,10007
0.11,1399
-0.24,9633
-0.109,8690
0.098,3011
0.122,2685
-0.0249,6573
-0.0506,6405
-0.417,9822
-0.0959,5366
0.226,1226
1.72,232
-0.166,7896
0.339,228
-0.0155,5623
0.0963,2463
0.107,1325
0.135,891
0.0846,2095
0.0206,4010
-0.0504,6126
-0.077,7491
0.00221,4908
0.171,1138
-0.184,8958
-0.0103,5453
0.304,237
0.0119,4488
-0.104,9583
0.0271,4124
-0.065,6727
-0.152,8439
-0.0142,5743
-0.103,8386
0.163,1555
-0.0149,5685
-0.352,10069
-0.208,9766
-0.172,8424
-0.196,10233
0.0387,3917
-0.317,10403
0.122,1854
-0.353,10240
-0.0423,6954
0.104,2334
0.116,2717
0.0807,2820
0.1,2517
-0.0254,5702
0.0183,4708
0.342,246
-0.0525,8147
0.0273,4441
-0.124,9749
-0.093,7626
0.477,310
-0.0675,7678
-0.00561,5476
0.119,2132
-0.0771,6419
0.36,1298
-0.0119,4993
-0.163,9515
-0.0893,8288
0.0129,4263
-0.279,9962
0.44,431
-0.11,7223
-0.225,10004
0.0307,3601
0.162,646
-0.0703,7728
-0.0104,5312
-0.0549,7567
-0.0171,5540
0.0988,1955
-0.0437,6585
-0.166,9718
0.0761,2821
-0.109,9077
-0.0452,7708
-0.0702,7501
0.0402,3787
0.0784,3223
0.0545,3472
0.123,1436
0.321,587
0.0324,4125
-0.254,10319
0.166,1266
-0.284,9034
-0.0311,5926
0.372,362
-0.136,9255
0.0602,2935
0.236,1633
0.118,2905
0.141,247
-0.178,8962
0.148,1855
-0.0227,5847
-0.198,8822
0.0396,3484
-0.0747,5782
-0.0453,5100
-0.0364,5927
-0.0763,6107
-0.361,10219
0.0401,3711
0.0721,3102
-0.0663,8250
-0.145,8996
-0.104,7723
0.01,4779
0.095,2859
0.103,2702
-0.0449,6699
-0.146,9456
0.191,603
-0.0729,7413
-0.157,9355
0.0586,3047
0.0146,4434
0.27,1657
-0.0305,5705
-0.0177,5626
-0.175,8956
-0.0905,9425
-0.0196,5521
0.0234,4227
-0.18,9730
0.0426,3672
0.0812,3037
0.312,638
-0.00557,5320
0.069,1872
-0.054,6629
0.086,2865
-0.11,8013
-0.0235,5408
0.0452,3885
0.181,1703
0.314,71
-0.128,7308
-0.0709,5362
-0.135,9771
0.0393,2793
-0.07,7228
0.0566,3541
0.0218,4228
0.479,1023
0.132,363
-0.044,6993
-0.0282,5893
-0.17,8548
-0.152,7153
0.0241,4409
0.331,159
0.228,401
-0.0546,6141
-0.0747,7019
-0.0492,7017
0.00404,4761
0.0896,2731
0.00951,4652
-0.05,6141
0.442,251
-0.0757,7074
-0.0539,5912
0.00573,4813
0.21,220
0.114,1684
-0.0455,6551
0.0183,4296
0.163,2714
0.0774,2035
0.229,1036
-0.0918,5314
0.0576,3203
-0.0626,7025
0.222,162
0.0345,3599
0.0659,2081
-0.152,8638
0.0076,5010
0.0995,2603
-0.0902,7608
0.104,998
-0.0169,5914
-0.147,9495
-0.124,8549
0.02,4484
-0.143,8384
0.021,4525
-0.0605,7814
0.228,706
-0.236,8948
-0.158,9030
-0.131,8513
0.138,595
-0.0319,6025
0.0478,3746
-0.242,10195
-0.0335,5856
-0.184,8908
-0.0473,8702
0.111,1597
-0.11,7555
0.113,2521
-0.32,8715
-0.267,9866
0.0785,2541
-0.00867,5696
0.15,780
-0.14,8595
-0.0935,5720
0.0586,3613
-0.0478,7346
0.00126,4903
-0.23,7901
0.107,1598
0.0324,4019
0.639,50
-0.00913,5380
-0.151,9639
0.0836,3277
0.283,1058
0.217,769
0.302,925
-0.0729,7757
0.153,1073
-0.0803,7748
-0.0992,7568
0.0216,4275
-0.407,8752
0.0642,2351
-0.0245,7510
0.147,2387
-0.0673,7253
-0.209,6934
-0.0332,6268
0.0155,4382
0.0465,3412
-0.165,7938
0.079,3485
-0.212,8517
0.195,2550
-0.0307,6245
0.0978,2981
0.223,365
-0.000626,5119
-0.111,8840
0.0555,3973
-0.0395,6950
-0.0152,5661
-0.0292,5713
0.0297,4311
0.0787,3444
-0.229,7716
-0.243,10229
0.00234,4875
0.0405,3522
0.218,1977
-0.181,9445
-0.136,7051
-0.123,8614
0.103,2133
-0.0793,6794
0.53,1479
0.233,1027
0.0202,4570
0.024,3629
0.0834,2808
0.177,1322
0.109,2440
-0.0559,7256
0.265,1313
0.0891,2083
-0.277,9630
0.0816,2881
0.0369,4085
0.526,4
-0.139,7546
-0.0362,7295
0.228,1107
0.114,2000
-0.295,10273
-0.226,8088
-0.0634,6494
-0.0288,6594
0.0537,2830
0.137,2052
-0.11,8595
-0.316,9707
0.183,1370
0.00871,4536
-0.0647,6999
-0.0938,7342
0.054,3851
0.0356,3237
-0.183,8269
0.0405,3418
-0.0571,8773
-0.0943,8935
-0.119,9722
-0.0943,7807
0.00548,4822
-0.0845,6973
-0.00277,5403
-0.0847,8499
-0.0978,6933
-0.102,7439
-0.269,8586
0.204,2841
0.00673,4702
-0.113,9780
-0.108,7450
-0.0359,6639
-0.133,7950
-0.201,9585
0.00301,4780
-0.12,10375
-0.826,9597
0.0841,3522
-0.321,5386
0.122,3005
-0.0446,5500
0.0174,4412
-0.308,10293
0.0139,4679
0.0101,4704
0.108,491
0.107,1268
-0.141,9192
-0.104,7266
0.0436,3940
-0.0354,6277
-0.108,8079
0.0542,2660
-0.187,9859
0.117,2708
-0.16,8194
-0.485,10452
0.0467,3460
-0.288,8766
-0.0705,6312
0.11,2055
0.11,2734
-0.342,8636
-0.0802,7115
-0.0922,8737
0.0815,2184
-0.364,6391
-0.423,9316
-0.647,10267
0.458,268
-0.133,9691
0.187,1045
0.143,3174
-0.304,8254
1.07,1233
-0.216,4544
-0.118,8776
3.45,84
0.0836,3843
-0.251,6685
0.0675,3068
0.153,3507
-0.0532,6585
0.0417,3555
-0.0436,6360
0.0619,3399
-0.138,9657
-0.038,6704
-0.278,9919
-0.152,8600
-0.0572,8391
-0.103,5376
0.00465,4857
0.132,1751
-0.0635,8217
-0.0913,6763
0.00419,4956
0.0566,3092
-0.119,7536
-0.145,8009
-0.0966,9223
0.0251,4219
0.0241,4098
0.0229,4237
-0.0339,7037
-0.0815,8504
-0.0329,5297
0.201,1876
-0.109,5972
-0.0523,6298
-0.0801,6795
0.00346,4864
-0.0366,4736
0.0709,3840
-0.00378,5057
0.551,23
-0.0648,7240
-0.0791,7447
0.0436,3687
0.0585,3302
-0.113,8145
0.134,1630
0.0473,2703
-0.1,8406
0.0769,3193
0.147,1912
0.121,2077
-0.0917,6714
-0.0751,8976
0.0167,4218
-0.265,8112
-0.418,8755
-0.0862,4752
-0.0889,7186
0.564,151
-0.0507,6340
-0.0142,5600
-0.0162,5392
0.0351,3717
0.047,3024
-0.0646,7937
-0.0693,5726
-0.155,9128
0.287,2518
0.0893,3019
0.0393,3277
-0.00646,5246
0.0547,3806
-0.243,10325
-0.00781,5092
-0.332,9498
0.0572,2459
0.589,7
0.0125,4914
0.0388,4047
-0.169,9359
-0.0832,7947
-0.0569,7459
-0.0274,5816
0.188,2552
0.337,608
0.174,1800
0.726,133
-0.0283,6567
0.0199,4441
0.27,2157
-0.0616,7062
-0.196,8176
0.00201,5142
0.0964,3266
-0.249,9835
0.0856,3221
-0.0649,7607
-0.199,9660
-0.0509,7424
-0.16,9678
0.0111,4353
-0.269,10258
0.271,399
-0.0757,6963
0.599,648
0.147,1036
0.0481,3099
-0.0221,5732
0.018,4316
-0.122,5366
0.194,1989
0.00636,4862
-0.0546,9023
-0.0771,4715
0.147,2948
0.0427,4310
-0.259,7934
-0.383,9966
-0.371,8818
0.00776,4800
-0.041,6183
-0.16,9780
-0.0345,5754
0.00926,4582
0.102,1113
-0.176,9763
0.0946,2503
-0.412,10305
0.108,1798
0.261,1677
-0.088,8004
-0.127,8494
0.297,520
-0.224,10173
-0.135,8123
-0.0203,6423
-0.0994,8056
0.00415,4982
-0.0152,5288
0.23,1081
-0.0959,6771
0.151,751
0.0288,4448
-0.112,7172
0.0407,3816
-0.409,9901
0.0209,4239
0.09,3161
-0.0247,6297
-0.0421,6557
-0.18,9497
0.212,1388
0.0962,4044
0.183,789
-0.0737,7154
-0.145,9969
0.0593,3392
0.114,2625
-0.0941,8265
-0.0521,7368
0.0613,2362
-0.229,8887
-0.133,8222
0.325,827
-0.0157,5398
-0.0833,7964
-0.00499,5195
0.109,3015
-0.0106,5492
0.169,1950
-0.133,8623
-0.0144,5256
0.138,925
0.158,2517
-0.211,9439
-0.306,10091
-0.0861,7246
-0.0144,5324
-0.0429,7312
0.116,2350
-0.0204,5165
0.0236,4162
-0.0783,7316
-0.129,7761
-0.0988,7843
0.00889,4791
-0.00276,5111
0.0277,3766
-0.0741,7571
-0.142,9067
-0.167,9352
0.0227,4535
-0.304,8809
-0.0642,6401
-0.005,5419
-0.105,8769
0.311,2557
-0.0945,6801
0.609,222
0.19,298
0.0192,4440
-0.051,7974
-0.115,9927
-0.0553,6674
-0.122,7301
-0.196,10077
-0.144,9363
-0.211,10069
-0.0875,7177
-0.041,6775
0.258,1005
0.0452,3208
-0.201,10105
-0.0292,6487
-0.152,8157
0.0605,2449
0.0239,4403
-0.241,8907
-0.218,8376
0.0993,2003
0.0445,3266
-0.129,8538
0.174,774
-0.0618,6092
-0.102,8298
-0.0142,6157
0.02,4361
-0.164,8723
-0.071,8177
-0.122,8576
0.0954,1676
-0.0443,7869
-0.0421,6753
-0.122,8132
-0.173,7478
0.85,147
0.0258,4159
0.0955,1179
-0.0566,6299
-0.0885,7867
-0.0153,5351
0.499,1290
-0.274,10228
0.0192,4378
0.0458,4199
0.0991,2338
-0.215,8252
-0.0097,5598
0.195,868
-0.253,10278
0.262,799
-0.137,8775
-0.24,9016
0.0442,4375
0.0955,1830
0.0458,1946
-0.0886,8364
0.0214,4486
-0.111,8792
0.106,2633
-0.012,5651
-0.0143,5620
-0.334,8885
0.0269,3956
-0.189,7631
-0.362,10393
0.148,1226
0.0228,3508
0.0273,4073
-0.058,7348
-0.0476,6270
-0.153,10103
-0.0398,7187
0.0419,2928
0.215,1324
-0.0512,6652
-0.0352,6274
0.0188,4540
-0.3,6951
-0.112,9617
0.124,2066
0.0633,3026
-0.103,7425
-0.171,9968
0.0403,3816
0.129,2459
0.467,573
-0.278,10222
-0.0485,6674
-0.104,7016
-0.0284,6452
0.0907,2765
-0.0389,7144
-0.224,10215
-0.238,10268
0.499,2502
-0.0506,9182
-0.0321,6275
0.0313,3905
-0.111,8540
-0.179,8578
0.203,612
-0.0449,6218
-0.0714,8056
-0.0144,5583
-0.149,8425
0.105,2166
-0.413,9508
-0.114,7750
-0.0373,6335
0.141,3299
0.0103,4594
-0.464,10392
-0.086,7639
-0.00302,5287
-0.0419,6580
0.0141,4731
0.132,2041
0.326,589
-0.11,8448
-0.174,8277
-0.208,9433
0.113,1557
-0.179,9088
-0.0264,6165
0.0136,4627
-0.0741,8517
0.0511,3690
-0.0454,6175
-0.447,10287
0.172,2182
-0.331,9734
-0.0429,7401
-0.048,7203
-0.00314,5081
-0.176,9464
-0.0159,4997
-0.0166,5269
0.0326,3428
0.0487,3779
-0.0145,5230
0.12,2566
-0.344,7850
0.0467,3661
-0.0926,8697
0.0329,3419
0.63,325
0.0487,3648
-0.344,7938
0.0113,4728
0.0696,3157
-0.128,6973
-0.0858,7791
0.226,1298
-0.222,10364
0.254,1729
0.0502,2259
-0.0989,9229
-0.0575,6726
-0.114,8097
0.387,467
-0.21,7900
0.147,999
0.00841,4731
-0.00675,5422
0.0176,4072
-0.329,10282
0.0641,3165
0.0278,3083
-0.127,8091
0.26,1343
-0.0476,6373
-0.241,10033
-0.00683,5125
-0.206,9748
-0.0163,7065
-0.0494,5703
-0.122,7606
-0.225,8728
-0.137,9167
0.0189,4006
-0.101,7090
-0.0124,4865
-0.126,8585
0.405,312
-0.0266,5939
-0.0382,6455
0.503,18
0.0533,3380
-0.268,10191
0.345,223
0.138,855
-0.0503,7952
-0.014,6272
0.0276,4521
-0.0973,8540
0.0879,3585
0.0206,4622
-0.0529,7129
-0.0387,6652
-0.0573,7315
-0.0672,6472
0.128,1211
-0.128,7216
0.013,4142
-0.0894,8152
0.098,2745
0.0387,4031
-0.164,8965
0.205,708
0.0527,2668
-0.0339,6877
-0.0802,6686
-0.0757,6723
-0.0336,6405
-0.0922,8146
0.0204,4022
-0.0494,7042
-0.163,8119
-0.0411,6788
-0.319,8815
0.158,1760
-0.0649,7122
0.00871,4557
0.142,2214
-0.285,10241
0.251,467
0.0542,3567
-0.0828,7258
0.0789,2701
-0.179,8694
0.181,2770
-0.288,9999
-0.102,7373
0.0219,4245
-0.0512,6837
-0.105,3672
-0.109,8111
-0.273,10270
-0.126,7749
-0.0773,9915
-0.104,8986
0.291,805
0.117,2053
0.0345,3814
0.167,1142
-0.0328,6986
0.0734,2718
-0.216,9290
-0.0553,5897
0.0479,3963
0.249,386
-0.0193,6343
0.163,699
0.0522,3549
0.019,4589
-0.138,9423
-0.31,9870
0.0884,2040
-0.0126,5665
-0.114,6902
-0.0891,6617
1.49,261
-0.156,7804
-0.131,9206
-0.0547,6808
-0.0673,6436
0.264,903
-0.00343,5367
-0.0373,5558
-0.206,10340
-0.0119,5642
0.157,2584
-0.0142,5278
-0.0415,7324
0.224,2154
-0.159,8693
0.106,1832
0.272,2104
-0.145,9315
-0.385,6547
-0.0373,5364
0.0589,2570
-0.263,4716
-0.108,7571
0.724,291
-0.196,10326
-0.031,6494
0.0775,2477
-0.423,9315
0.0121,4795
-0.239,5989
0.386,998
-0.228,8845
-0.0437,5841
0.144,2015
-0.0105,5240
-0.226,7520
0.303,345
-0.0338,7024
-0.237,9503
0.283,1489
-0.555,9516
-0.337,9053
0.0705,2758
0.04,4119
0.0977,1662
-0.0255,5469
-0.00614,5141
-0.137,6312
-0.00561,4598
-0.0487,7425
-0.0259,5851
0.0797,3375
-0.113,9621
-0.109,5607
-0.138,8985
0.00254,4768
-0.0329,6291
0.865,795
-0.278,10060
0.36,1811
-0.176,8114
-0.152,9366
-0.103,9640
0.131,1739
-0.148,9636
-0.262,6508
-0.116,8907
-0.0858,7563
-0.0082,5331
-0.0389,5686
-0.245,9963
0.272,572
0.0485,3600
0.133,1475
0.0749,2174
-0.224,9645
0.273,810
0.0527,3886
-0.148,7941
-0.0139,5613
-0.0221,6000
0.0532,3290
1.34,195
0.239,1141
0.0221,4531
-0.0085,5156
0.0235,3682
0.245,1277
0.0844,3258
-0.189,9931
-0.0436,5818
-0.151,8033
-0.0481,7195
-0.0898,6647
0.352,90
-0.0371,5833
0.159,1946
0.359,62
-0.299,10385
-0.083,7940
0.0285,3431
-0.0947,6972
-0.000407,5090
-0.125,9820
0.0901,3188
-0.086,7264
0.374,808
0.883,171
-0.0946,7447
0.0593,3096
0.308,837
0.212,831
-0.167,8244
-0.00838,5257
0.552,1649
0.00278,4892
0.0741,3396
0.049,3789
0.286,1455
0.086,3473
-0.0779,8066
0.119,1806
-0.0196,6147
0.0564,2498
-0.0151,5564
0.209,1502
-0.000483,4815
0.00566,4596
-0.0839,8310
-0.18,9353
0.0856,1677
-0.147,7265
-0.058,6630
0.0616,2416
0.0118,4574
-0.167,9707
-0.051,6400
0.0202,4391
-0.0215,5688
-0.0601,7634
-0.0802,7660
-0.0863,8395
-0.0536,6647
-0.193,8888
-0.149,7253
0.0379,3946
-0.12,9740
-0.025,4982
-0.186,7480
0.00413,4813
-0.205,10003
0.127,1582
0.552,96
-0.0811,7176
0.00882,4231
0.144,1557
0.0314,3712
0.108,1028
-0.075,9344
-0.0151,6265
0.0137,4572
0.00239,4810
0.153,538
0.133,2132
0.264,411
0.0635,2851
0.0206,4470
0.00678,4839
-0.0859,7458
-0.207,9908
-0.0106,5804
-0.133,6317
-0.0576,6658
-0.192,10333
-0.0883,7326
-0.422,9703
-0.232,9497
0.0977,2411
-0.0851,7865
0.00176,4896
0.637,1750
-0.00198,5044
0.0448,4067
-0.000188,5374
0.124,1260
-0.104,6097
-0.24,10099
-0.174,9402
-0.0688,6609
-0.135,8277
0.139,1346
0.31,342
-0.0554,6376
0.187,1041
0.0188,3888
-0.122,7956
-0.0794,5951
-0.329,8768
-0.0686,5392
-0.153,9418
-0.0886,7883
-0.0665,6964
0.0982,1873
-0.112,6552
-0.369,9118
0.15,1018
-0.218,10195
-0.0782,9043
0.0135,4646
0.0294,4095
-0.213,9309
0.168,275
0.0559,2174
-0.412,10249
-0.0399,6564
-0.045,6336
0.112,1927
-0.114,9604
0.0702,3439
0.44,732
-0.216,10346
-0.0968,7042
-0.119,9047
0.134,744
-0.207,9328
-0.1,7372
-0.1,7312
-0.166,7958
0.0783,3903
0.0209,4098
-0.0741,8515
0.282,162
-0.286,9838
-0.269,9536
0.236,1981
0.0961,1740
-0.218,9892
-0.103,8287
0.0245,4581
0.00476,5164
0.0194,4371
-0.094,8318
-0.201,9693
-0.0725,7133
0.236,649
0.263,1559
-0.237,8609
-0.124,9284
0.0331,3365
-0.0222,5907
0.0684,3408
-0.0488,6460
-0.351,7163
-0.0828,8353
0.168,1007
0.337,175
-0.132,6853
-0.13,7052
-0.0619,6070
0.0821,437
0.307,106
0.0914,2684
-0.00186,4835
0.0357,3911
0.156,249
0.222,248
0.156,631
-0.0868,6559
0.0265,4429
-0.243,8735
0.44,823
-0.319,10473
0.0076,4578
-0.0226,5358
0.0325,3850
-0.122,7383
-0.265,9773
-0.226,10307
0.0914,2165
-0.000844,4906
-0.0171,5406
0.265,655
0.174,546
-0.017,5185
-0.141,8834
0.225,1603
1.29,81
0.511,264
0.0318,3084
-0.0101,5280
-0.0361,6133
-0.184,8869
0.146,2562
0.0959,2392
0.0778,2700
0.0463,3671
0.098,3175
0.00188,4835
-0.0203,5355
-0.158,9861
-0.0221,6370
0.0573,3071
-0.149,8267
0.00245,4885
-0.138,9370
-0.371,8398
-0.0438,7296
0.00571,5039
0.13,1799
0.0544,3269
0.0162,4683
-0.248,8081
0.0753,3799
0.101,1891
0.505,750
-0.149,9513
0.287,1771
0.00867,4840
0.0175,4383
-0.299,10105
0.0759,2528
-0.202,9019
-0.122,6959
0.144,3332
-0.153,9816
-0.114,9437
-0.304,10234
0.191,2413
-0.203,6976
-0.0824,7538
0.000832,4935
-0.0621,7880
0.07,2803
-0.171,8249
-0.523,6767
0.0216,3989
-0.0727,7260
0.0863,3083
0.0447,3514
0.0508,3791
0.0182,4353
0.00356,5116
0.24,994
0.182,1075
-0.245,9021
-0.0614,7919
0.0982,1837
0.000681,4958
-0.0544,6527
0.19,1148
0.398,134
-0.205,9544
0.273,1792
-0.107,7088
0.00596,4754
-0.32,8444
-0.286,10259
0.0261,3940
0.117,2584
0.142,1381
0.0316,3029
-0.136,10074
-0.1,6412
0.116,2558
0.0317,4259
0.0473,2793
0.0766,3217
0.116,2527
-0.186,9246
-0.143,5687
0.0757,3740
0.0407,4085
0.0176,4617
0.286,927
1.14,88
0.0977,2648
-0.194,9012
0.111,1302
-0.00408,5619
-0.281,9645
-0.00583,5469
0.0267,4606
0.0903,1993
0.136,1282
-0.0342,6291
-0.0315,5779
-0.345,10139
-0.102,7583
0.176,1038
-0.0338,6867
-0.0529,7100
0.167,2291
0.0318,4247
-0.0875,7433
0.578,766
0.0887,3249
-0.12,9634
0.0887,3018
-0.000689,5173
0.0401,4269
0.0303,4282
0.21,139
-0.0743,8571
-0.124,9796
0.00583,4643
0.00233,5081
-0.329,10393
0.087,2005
-0.0385,6154
0.0938,2704
0.00343,4743
-0.394,9221
-0.114,8359
-0.0326,6030
-0.0626,6984
-0.332,10273
0.181,1918
-0.121,9560
-0.0612,6005
0.204,342
-0.133,9687
-0.0909,6950
-0.00348,5308
-0.158,8092
0.0236,4587
0.00759,4609
-0.0876,9379
0.0845,2711
0.0183,4636
0.255,947
-0.249,9781
0.0261,3618
0.0261,4232
0.0353,4271
-0.146,8028
-0.311,7923
-0.131,8190
-0.0338,6526
-0.124,9871
0.728,1442
-0.0606,5380
-0.248,10055
0.265,2450
0.00827,4618
-0.00807,5706
-0.301,6784
0.0904,2305
-0.184,7979
0.056,3783
-0.0226,6234
0.0766,2889
-0.0156,5412
0.0949,791
0.308,1598
-0.22,9744
-0.0602,6306
-0.0361,7054
-0.0553,6285
-0.132,7747
-0.16,9184
0.0599,4128
-0.0687,7268
0.0195,4129
0.136,2166
0.041,4214
-0.191,9320
-0.394,9584
-0.0136,5528
0.00485,4818
-0.251,6312
0.143,2838
-0.0597,7161
0.096,3266
-0.202,8544
-0.298,9440
-0.0332,5293
-0.00133,5075
-0.0614,7156
-0.277,9129
0.087,3527
-0.175,6352
0.00809,4576
0.134,469
0.0639,2353
-0.0502,6072
0.0892,2454
0.146,983
-0.0091,5396
-0.0183,6190
0.024,4311
-0.0548,6244
-0.113,6072
-0.127,7286
0.037,3838
0.0733,2531
-0.0101,5058
-0.141,7802
0.104,2443
-0.0704,6861
-0.113,7504
-0.0198,5471
-0.143,8850
-0.123,5305
0.128,2781
0.0804,3058
-0.0194,5330
-0.0078,5632
0.0515,2737
-0.139,4182
-0.0108,5322
-0.0787,6299
-0.00653,5765
0.0895,1058
0.00118,5054
-0.629,8121
-0.46,8729
0.0266,4541
-0.279,9899
-0.31,10074
-0.409,6968
0.439,1509
-0.448,6745
-0.121,6286
-0.968,9589
-0.0322,5533
-0.0731,6041
0.233,72
-0.0822,9165
1.09,875
0.359,1834
1.75,131
-0.362,7721
0.2,2052
0.0173,4650
0.337,716
0.0823,3077
-0.0973,7156
-0.142,9266
-0.276,10259
-0.132,7764
-0.0125,5467
-0.0765,6763
-0.0482,7913
0.0354,3034
0.183,1052
-0.135,8618
-0.0578,7284
0.0747,2531
-0.101,7342
-0.0704,8122
0.00828,4789
0.2,2617
-0.254,7599
0.0993,3436
-0.0904,6731
-0.0108,5319
0.0398,4127
-0.533,6790
-0.16,8065
0.0449,3894
-0.0724,6384
0.000582,5209
0.00285,4940
0.202,3013
0.204,2548
0.00237,5056
0.0153,3319
-0.11,7740
-0.104,7718
0.229,1224
0.0632,3144
0.0512,3222
-0.363,10378
0.0161,4516
0.363,735
-0.0323,6020
0.21,1555
0.417,139
-0.0442,7748
0.148,2857
-0.0901,7095
-0.408,9559
0.0964,1542
0.0534,2883
0.0874,2853
-0.29,10379
0.0639,3062
-0.164,7700
0.0264,4458
0.377,839
-0.019,6006
-0.253,9299
0.0874,3353
-0.0207,5754
-0.162,9703
-0.0161,5867
-0.0092,5385
-0.466,9114
-0.0851,5858
-0.0241,5964
0.0805,3824
-0.066,8162
0.0717,3627
-0.139,7325
-0.356,10311
-0.278,9820
-0.0926,7036
0.0319,3930
0.432,1690
0.157,2423
0.0406,4340
0.524,11
0.0891,712
-0.0666,8405
-0.201,9503
-0.403,8449
0.0521,3857
0.206,1990
-0.0207,6439
-0.0686,7342
-0.00753,5623
-0.0827,8174
-0.395,9112
0.0716,3182
-0.0731,7446
-0.109,7331
0.0666,1683
0.211,243
0.0292,3916
0.0456,3930
-0.163,8417
-0.112,9095
-0.00896,5593
0.0132,4426
-0.0903,7798
0.0154,4679
0.0489,3413
0.0154,4440
0.226,368
0.13,2174
-0.107,7315
0.0694,3301
-0.12,8973
-0.209,9862
-0.0601,8271
-0.182,9917
-0.0205,5772
0.0866,1646
-0.174,9432
0.00867,4829
-0.113,7295
-0.105,7818
0.00281,5118
0.128,3292
-0.0742,8439
-0.033,5960
-0.039,6391
0.327,1457
-0.00265,4771
-0.0289,5601
0.0886,2404
0.0141,4727
-0.0569,6818
0.11,1876
-0.0338,5909
0.157,1908
0.00797,4556
0.0197,4453
0.191,2395
0.0294,3914
0.0712,3232
-0.0692,7505
-0.238,9725
0.0423,3093
0.373,51
-0.0813,7269
0.143,692
-0.12,7109
0.0287,3965
-0.0438,6842
-0.325,9912
0.26,1701
0.578,751
0.0677,2960
0.244,1377
-0.0461,6400
0.0436,3799
0.376,623
-0.342,9578
0.355,46
0.0862,1793
0.295,82
0.0116,4598
-0.0249,6037
-0.0643,7718
0.104,1863
-0.0555,6730
0.13,1947
-0.463,6387
-0.0144,5811
-0.0601,6693
0.207,338
0.157,1525
-0.177,9012
0.0926,2436
-0.0371,6551
0.121,2217
-0.0508,6317
-0.0298,7276
0.018,3602
0.176,1402
0.126,2122
0.183,1250
-0.295,9389
0.0175,4581
0.0904,2559
-0.0944,6830
-0.022,5697
-0.151,9400
0.201,1103
-0.0426,6491
0.222,622
0.0691,3564
-0.0262,5606
0.0189,4569
0.166,2023
0.013,4538
-0.0201,6143
0.0442,4078
-0.607,8823
-0.0145,5301
0.0076,4802
0.064,1462
0.0544,1888
0.536,445
-0.0162,6234
0.163,1434
0.0208,4328
0.169,431
0.044,3683
-0.0632,6815
-0.335,9279
0.153,494
-0.025,5741
0.116,1364
0.0387,2956
0.00469,4972
-0.164,9016
-0.00324,5262
-0.0893,8756
-0.483,10414
-0.0633,7235
-0.192,9317
-0.164,9376
-0.192,6980
0.158,2294
0.0868,2229
-0.215,9993
-0.122,8336
0.466,57
0.0037,4761
0.193,1490
-0.17,10034
0.0268,3768
-0.186,8276
0.278,610
-0.112,8428
-0.197,10098
-0.0227,6877
-0.0896,8063
0.0226,4231
0.00928,4755
0.257,586
-0.114,7380
0.0646,2699
0.0141,4551
0.0332,4150
-0.179,9866
0.0101,4962
0.801,365
-0.0511,6801
-0.123,9656
0.0667,2855
0.0412,3741
-0.19,8671
-0.0243,5751
-0.071,7399
-0.0203,6673
0.013,4825
0.0611,3416
0.111,3070
0.072,2588
0.0691,2737
-0.0138,5463
-0.0571,6501
-0.163,9513
-0.248,9270
-0.00141,4802
-0.0574,6815
0.0241,4286
0.34,699
0.0915,2019
-0.177,9309
-0.0619,7032
-0.0544,8006
0.0235,4005
-0.0511,6611
-0.0815,8224
-0.0475,6345
-0.149,9122
0.00225,5077
0.0825,2491
0.086,2183
-0.000947,5147
-0.245,9338
0.194,275
-0.0586,6657
0.102,2676
0.0789,2472
0.107,3572
-0.00315,4730
-0.0389,7841
0.0362,3618
0.0232,4119
-0.125,8136
-0.25,7266
-0.0806,6941
0.0958,915
-0.11,9189
-0.00701,5036
0.0729,2468
-0.141,9755
0.208,2356
-0.0289,5934
0.0242,4409
0.204,717
0.303,837
0.0293,4379
-0.174,6539
-0.0798,9515
-0.105,9034
-0.188,9362
0.118,2319
0.2,1776
0.137,761
-0.0959,8987
0.0281,3850
0.255,1101
-0.0961,7420
-0.199,8588
0.619,610
0.212,1142
0.0711,3279
-0.203,7221
-0.0237,5722
-0.00271,5383
-0.485,9880
-0.166,8237
0.0986,2759
0.0312,4172
0.0769,2720
-0.249,9651
0.0636,3894
-0.0246,5605
0.682,38
-0.0409,6271
0.325,277
-0.351,10376
-0.19,8711
0.289,550
-0.303,10176
-0.269,9163
0.0928,2876
-0.166,8217
-0.0551,5966
0.016,4357
-0.055,7795
0.0104,4577
-0.0744,6401
-0.0211,6183
0.0976,2703
-0.231,8673
0.145,884
0.237,2263
0.0795,3548
-0.172,8967
-0.305,10059
0.0527,2280
-0.0974,9280
0.0417,3865
-0.0205,5758
-0.0345,5357
-0.262,9163
0.21,1184
-0.0156,6139
-0.0415,6560
-0.171,8202
0.194,2023
0.123,2615
-0.123,9340
-0.0734,9173
-0.0345,6057
-0.162,9700
-0.0491,6153
0.119,1505
0.108,2539
-0.175,9853
-0.202,7775
-0.394,8960
-0.0752,5931
-0.0458,6884
-0.0544,8222
0.233,1453
0.255,1547
-0.0303,5536
0.276,2911
0.0138,4132
-0.0448,6924
0.433,985
-0.0826,7816
-0.0704,6011
-0.112,7661
-0.034,6583
-0.0339,6741
-0.126,8472
-0.0496,6312
0.281,1013
0.064,3662
0.121,1822
-0.148,8839
1.79,552
0.0976,1570
0.0953,1860
-0.195,9334
-0.0115,5761
-0.0588,8351
-0.2,9315
-0.114,6705
0.0211,4574
0.0822,2152
-0.165,8518
0.0324,4162
-0.14,7958
-0.0855,7950
-0.0734,7169
0.123,2439
0.0257,4154
0.0927,2097
-0.691,8591
0.233,176
-0.0837,8281
-0.217,8150
0.138,807
0.0197,4000
-0.386,7116
-0.18,9963
-0.183,7947
-0.0921,7659
-0.00102,5107
0.0588,3434
-0.0482,6344
0.131,2164
0.0875,1303
0.066,1531
0.156,1673
0.022,4277
-0.0116,5033
-0.201,9458
0.034,4071
-0.0369,5924
-0.349,10445
-0.0546,7848
0.0758,2228
-0.128,8425
0.208,575
0.0335,2105
0.0333,3790
0.365,864
0.344,536
-0.942,9059
0.164,1698
-0.164,9156
0.239,2234
-0.132,8401
-0.0805,6610
0.515,252
0.356,936
0.0949,2145
-0.195,6864
0.0497,3356
0.17,2218
-0.0892,7147
0.166,2926
-0.104,8040
-0.161,10143
0.144,967
-0.118,8333
-0.0616,7509
0.0902,2948
0.0208,4547
0.0377,3804
-0.121,8816
0.217,698
-0.0505,6398
-0.207,8734
2.9,57
-0.118,7590
0.375,95
-0.117,8293
-0.0441,6028
0.0435,4085
-0.0909,8451
0.0213,4241
-0.0211,8692
-0.0981,7436
-0.00852,4856
0.0765,3563
0.0553,3408
0.155,1310
0.0618,2887
-0.122,9711
0.0276,3854
-0.115,7171
-0.157,8788
0.00562,4779
-0.109,7953
-0.0644,7371
-0.0841,7801
0.0518,3668
-0.125,8075
-0.0348,8055
-0.00815,5585
0.0983,2336
0.0663,2167
-0.124,9215
-0.15,8540
0.0191,4528
-0.0851,7853
-0.0276,5343
-0.0199,5529
-0.168,10095
-0.228,9970
-0.0678,7311
-0.117,7956
-0.246,10032
0.199,1066
0.0416,3822
0.0342,3760
-0.258,8558
-0.662,9624
0.0652,3456
-0.0883,8236
0.0565,3207
-0.0415,7857
0.369,1756
-0.104,6788
-0.33,9361
-0.132,7928
0.0581,2639
-0.0594,7315
-0.0349,6962
0.136,1267
-0.204,9719
0.0159,4480
-0.182,10188
0.0197,3987
0.856,15
-0.213,9548
0.151,1413
-0.401,9887
-0.321,10469
0.00487,4789
-0.0398,5977
-0.239,9413
0.484,622
0.0515,2900
-0.0642,7783
0.261,537
-0.105,8696
0.195,1830
-0.074,7180
0.0052,5058
0.0207,4618
0.153,1068
-0.274,10155
-0.0445,5945
-0.00968,5397
0.103,1307
0.00113,5174
0.017,4241
-0.0691,6933
-0.448,9839
-0.00645,5319
0.0855,3109
-0.156,9013
-0.0838,8742
-0.0777,9076
-0.042,6595
-0.14,8720
-0.103,9315
0.318,887
0.021,4182
-0.283,10346
0.0232,4467
0.122,1908
-0.0979,8152
-0.279,8820
0.2,331
-0.271,8919
0.0545,3265
-0.156,9146
0.0139,4411
-0.049,7363
-0.00421,5014
-0.0741,7735
0.0934,2537
0.102,458
0.027,4468
-0.0225,6840
0.28,779
0.103,2147
0.146,1478
0.121,3251
-0.0624,6308
-0.043,5975
-0.177,9189
0.102,2491
0.0718,3641
-0.0817,7565
0.0093,4675
-0.00204,5136
-0.217,9591
0.128,777
0.12,1930
0.0865,2513
-0.172,8295
0.149,906
0.19,675
-0.233,8068
-0.184,7567
0.00289,4855
-0.0204,6032
0.00714,4963
-0.00108,5062
0.0688,2848
0.175,1935
0.161,2065
0.208,374
-0.189,10405
-0.0699,6151
0.0573,3660
-0.0798,7240
-0.155,9570
-0.108,8650
-0.0439,6104
-0.0918,8222
-0.166,8985
0.0289,4156
-0.204,9223
-0.0495,7866
-0.0816,7680
0.271,804
-0.141,9600
-0.18,8077
-0.0117,5251
-0.00485,5302
0.0149,4599
-0.432,8971
-0.0248,5512
0.1,3052
0.098,1835
-0.0339,5933
0.138,1367
-0.244,9995
0.0683,2933
0.147,1618
0.0623,3568
-0.053,7897
0.182,278
-0.0767,7031
-0.0924,6721
-0.189,7806
-0.0982,8028
0.0442,3455
0.157,1132
-0.0648,7295
0.192,1498
0.0315,3998
-0.125,8356
-0.0761,7469
0.0203,3929
-0.249,8660
0.0815,3578
-0.0234,5737
0.295,1451
0.0781,2114
0.0466,3155
0.0984,2510
-0.0476,6257
0.0684,2543
0.00192,5061
-0.0111,5360
-0.0967,8087
0.156,915
-0.209,9188
-0.501,10292
-0.0529,7668
0.0495,3844
0.19,362
0.0463,3524
-0.0467,6258
0.347,802
0.185,2285
0.137,1414
-0.023,5933
0.289,2216
-0.145,8571
0.0555,2897
0.131,1506
-0.0457,7931
-0.0476,7861
0.13,2424
0.287,1288
-0.0115,5322
-0.202,9019
0.116,1451
-0.00704,5430
0.103,2112
-0.0526,6486
0.0614,3955
0.0815,3164
-0.0846,7248
0.114,967
0.0666,3586
-0.0129,5603
-0.103,6102
-0.22,9008
-0.0271,6623
0.276,140
0.124,1142
-0.00511,4952
0.0648,1970
0.071,2697
0.119,1555
-0.0642,7076
-0.113,8299
-0.399,9719
-0.0822,6441
0.135,1457
0.0586,2028
0.233,772
-0.125,10272
0.167,1867
0.00315,4878
-0.0129,5613
0.000279,5068
0.102,1572
-0.369,8995
0.0902,3378
-0.0574,6617
-0.224,8240
0.0657,3353
0.00805,4638
0.318,773
-0.0516,8156
-0.0818,7589
-0.333,9642
0.0311,3286
0.0439,2290
-0.0241,5667
-0.347,9209
0.011,4648
-0.0757,7743
-0.0491,6917
-0.0562,7248
0.00866,4828
-0.0147,5277
-0.326,8163
-0.217,8682
-0.183,9019
0.214,719
-0.0423,6820
0.393,71
-0.0152,5620
-0.113,8483
0.0411,3102
-0.0942,9824
-0.0567,5994
-0.01,5201
-0.18,8816
0.0302,3914
-0.00401,5242
0.332,31
0.193,997
-0.227,9417
0.38,1465
0.00137,4906
0.0248,4188
0.052,1282
-0.0776,7504
-0.142,9742
-0.161,9129
-0.0862,6803
-0.0723,6688
0.0459,3524
0.178,1966
-0.243,9173
-0.184,9041
-0.19,10039
0.0653,2568
-0.0584,7542
0.159,911
0.0093,4836
-0.0163,5535
0.0983,2999
0.162,397
-0.0792,9005
-0.0443,5752
0.136,2257
0.0761,3652
0.0339,3782
-0.0262,6215
0.0488,3097
0.224,832
-0.072,7349
0.0991,2445
-0.0283,4956
0.315,573
-0.0617,7629
-0.185,10074
-0.105,7832
-0.109,9030
-0.00651,5716
-0.0346,7107
-0.0889,8717
-0.0681,8077
0.284,1425
0.131,1945
0.0378,3412
-0.0216,5210
0.0948,2532
-0.082,7142
0.103,1748
0.00931,4584
-0.112,6709
0.176,910
0.0774,1023
0.0218,4093
0.236,740
0.239,1966
-0.0127,5521
-0.00595,5154
0.145,591
0.0571,3872
0.263,726
0.19,2248
-0.355,9818
0.0737,2625
0.0989,1829
-0.246,9252
-0.229,8653
-0.264,10228
-0.0634,7714
-0.172,7443
-0.118,9185
0.121,1822
-0.138,9120
0.0914,2160
-0.0216,5691
0.0146,4694
-0.104,8596
0.0328,4239
0.0207,4459
0.262,544
-0.0469,5942
0.161,692
-0.139,8210
-0.331,8751
-0.143,8402
-0.000943,5051
-0.0242,5558
-0.0716,8801
0.00834,4681
-0.17,8825
-0.18,7869
0.161,1750
0.0145,4625
-0.0184,6498
-0.152,9780
-6.19e-05,4928
-0.267,10132
-0.398,10401
0.0671,3345
0.195,1260
-0.111,9963
-0.143,9270
-0.42,9554
0.0878,3226
-0.0157,5458
-0.151,8600
0.0106,4720
0.0332,3877
-0.0706,5926
-0.126,7582
0.09,2165
-0.242,9941
-0.00138,5299
-0.0855,7879
-0.139,8553
0.0825,3242
0.16,1008
-0.193,10187
0.0229,3984
-0.049,6271
0.000829,5006
0.0452,4123
0.137,2353
0.165,153
-0.114,9131
0.0347,3291
-0.407,10310
0.264,1319
-0.0296,5548
-0.0259,6057
-0.0523,6370
0.3,476
0.178,576
0.574,408
0.0881,1722
-0.0853,8622
0.123,1633
-0.122,7941
-0.199,10306
-0.174,8288
0.106,2745
0.0973,1838
-0.101,10118
-0.211,9576
-0.011,5346
-0.252,10222
0.0256,4560
0.0935,1325
-0.0614,7935
0.224,259
-0.15,8928
-0.0713,6265
0.186,2698
0.0842,3166
0.12,780
0.135,2832
0.00887,4947
-0.00713,5047
0.0517,4397
-0.114,10124
-0.0209,5979
-0.086,6389
0.0198,4337
-0.257,10169
0.0358,3774
-0.0591,8575
-0.0306,6477
-0.241,9877
-0.0796,6838
-0.0605,5818
-0.288,10318
-0.00701,5868
0.111,941
-0.308,10151
-0.0408,6537
-0.311,7377
-0.345,9410
-0.183,9081
-0.0813,7760
0.18,901
-0.0681,6542
0.163,734
0.537,659
0.0428,3324
-0.0938,8898
-0.118,8605
-0.0249,5349
-0.0668,6284
-0.0197,5245
-0.0351,5925
-0.613,9083
-0.0134,5350
0.0476,3670
-0.0429,6441
-0.132,8817
-0.0755,8154
-0.176,9660
-0.155,9132
-0.00571,5207
-0.0554,6619
-0.032,5865
0.213,1131
0.105,1750
0.0546,2599
0.201,2438
-0.339,9139
-0.208,8552
0.189,287
-0.00141,5138
-0.302,10385
-0.252,8883
-0.2,8517
0.212,298
0.207,1465
-0.155,7936
-0.122,8694
0.0485,3650
-0.0728,8773
-0.00203,5425
0.0627,2265
0.0569,2570
0.0382,4003
0.404,693
-0.217,8192
0.115,2665
-0.0645,5935
-0.228,8427
-0.167,8083
0.194,2236
0.0337,3655
-0.109,8348
-0.215,8507
-0.393,10414
-0.285,9266
-0.0289,5635
-0.00572,5246
-0.261,9946
0.00498,4803
-0.0346,6672
-0.0149,5739
0.00899,4717
-0.099,9050
0.0123,4753
0.211,2466
-0.418,8740
-0.138,7833
0.0463,4040
0.0272,4090
-0.229,10283
-0.153,7223
-0.113,6796
-0.161,7872
0.0565,3659
-0.0273,7201
-0.0251,6291
-0.37,10156
-0.113,9495
1.01,670
0.0634,3170
0.274,280
0.021,4169
0.31,396
0.0297,3821
0.0572,3924
0.0235,4457
0.0549,2398
0.0131,4364
-0.249,9696
0.212,1897
-0.00606,5364
0.971,269
0.2,109
0.0257,4095
-0.0449,6135
-0.0915,7568
-0.219,9838
0.2,2809
0.111,1373
0.138,1182
-0.067,6337
-0.0608,7322
-0.119,7849
-0.211,9489
-0.111,9446
-0.0237,6111
-0.0298,6094
-0.0286,5678
0.057,3928
0.493,698
-0.198,9323
-0.399,10358
0.196,1229
-0.252,8195
0.125,2271
0.033,4283
-0.0848,8946
-0.152,5795
0.629,337
0.0644,1757
-0.161,8956
-0.0446,7039
-0.0114,5565
0.00394,4880
-0.0154,5291
0.151,2347
0.0362,4288
-0.03,6436
0.0923,1943
-0.163,9937
-0.489,8222
-0.237,9910
-0.13,6778
0.00882,4765
-0.0464,6888
-0.0669,6425
0.0331,4320
-0.0588,6564
0.264,897
0.345,491
0.168,264
0.189,1871
0.0547,3518
-0.251,9517
0.0271,4454
-0.347,10406
0.0239,3502
0.0125,4767
0.0932,2467
-0.00864,5074
0.218,1003
0.0237,4250
0.215,1101
0.0512,3883
-0.0836,6718
0.0522,3702
0.0695,2553
-0.127,9115
0.11,1534
0.0282,4020
-0.0289,6623
0.0613,3483
-0.0558,7439
-0.0171,5777
0.161,995
0.0508,3725
0.179,981
-0.0415,5456
0.388,299
0.0148,4481
0.0624,3309
-0.0209,5698
0.0275,4340
-0.329,9689
0.0152,4359
0.0848,1467
0.233,311
-0.0516,7153
-0.0703,7405
-0.118,9294
-0.257,8832
0.0906,1184
-0.0619,6930
-0.218,7458
-0.0251,5568
0.0276,4424
0.801,118
0.0415,3282
0.0701,3280
0.0417,2749
0.0282,4359
-0.11,6893
-0.0859,7694
0.062,3556
0.0382,3507
-0.13,8818
0.158,1768
-0.449,9062
-0.129,9662
0.119,716
-0.082,8165
0.345,66
0.164,2155
0.0589,3858
-0.0855,6161
0.137,293
0.00757,4809
0.059,3776
0.0501,3817
-0.0908,8975
-0.0528,7125
0.101,1926
0.204,283
0.0815,2520
-0.0665,7348
-0.0905,6064
-0.158,9213
0.0452,4156
0.257,1429
0.376,2202
0.212,1794
0.145,1189
0.00763,4814
0.0508,3841
0.397,1169
-0.0396,7996
-0.156,8971
0.0309,4134
-0.0163,6802
-0.078,6914
-0.0508,6948
0.372,593
-0.0664,6960
-0.0107,5540
-0.182,9801
-0.114,8158
-0.0802,5999
0.381,857
0.201,753
-0.151,9446
-0.0282,6513
-0.0586,3743
-0.134,8086
0.178,2391
-0.186,9292
-0.158,10120
0.0488,2991
-0.167,4703
0.241,1543
0.161,1615
-0.0162,5464
-0.0845,9348
-0.00749,5402
-0.149,9362
-0.0261,6051
-0.0786,7530
-0.0181,5961
0.0136,4766
-0.149,9833
-0.0319,5619
-0.021,5823
-0.0525,5847
0.296,1329
-0.0936,7628
-0.0569,8617
0.193,791
0.0343,3056
0.0927,3202
-0.136,8237
0.103,928
-0.00629,5451
0.0768,2728
-0.127,7490
0.0234,4443
-0.0511,6626
0.0473,3680
0.0305,3649
-0.233,10160
-0.113,8322
0.0383,3940
-0.121,8800
-0.174,9926
-0.0291,6142
-0.0231,5372
-0.0261,5839
-0.11,9020
-0.184,8315
0.0325,3004
0.0313,4081
0.00995,4781
0.0277,3994
-0.105,7983
-0.00361,4924
0.195,272
-0.0169,5497
-0.0231,5801
-0.0972,8374
0.033,3808
-0.00658,5397
-0.0294,5811
0.0551,2937
-0.301,8826
-0.00104,5288
-0.0183,5618
-0.0984,6653
-0.0393,5984
0.0715,2443
0.0688,3346
0.174,1232
-0.164,7044
-0.137,9779
-0.354,10465
0.00615,4915
0.0198,4819
0.178,1562
0.076,3440
0.141,1714
-0.0232,5947
-0.192,9173
-0.035,6072
0.0457,4144
-0.028,5831
0.00637,5028
-0.0207,6057
-0.196,9153
-0.0815,6592
0.211,2271
-0.162,7651
0.0459,4017
-0.0385,5977
-0.104,6833
0.0151,4317
0.26,887
-0.0259,5308
0.00549,4928
-0.22,9732
0.143,2295
-0.175,7814
0.00258,5081
-0.0988,7788
-0.00283,5100
-0.0273,6332
-0.143,8327
-0.0408,5878
-0.113,7933
-0.176,9796
0.0321,3986
0.0178,4413
0.368,305
-0.122,7383
-0.205,9637
-0.116,8367
-0.156,8163
0.269,567
-0.0135,5285
0.0387,4187
0.118,2847
-0.195,9265
0.134,888
0.177,1054
0.0326,3874
-0.194,9844
0.15,500
-0.139,9868
-0.0902,8885
-0.194,10244
-0.103,8926
0.0777,2851
0.00312,4891
-0.00288,5088
0.0647,2253
0.094,1168
0.142,1963
0.325,970
0.378,885
0.0492,3847
-0.000815,5063
-0.041,8262
-0.197,9620
0.171,1548
0.0783,2611
-0.158,7868
0.0651,3773
0.0675,2331
0.197,791
-0.0228,5831
0.207,1907
0.0476,3776
-0.0146,5684
-0.125,8444
-0.125,8351
0.0224,4449
0.106,1132
-0.16,7786
-0.0511,8298
-0.0564,8239
-0.172,7783
0.00131,4944
0.254,1387
-0.395,9629
-0.164,9804
0.0733,2835
0.121,2628
-0.118,8572
-0.0369,5873
-0.177,8593
-0.0461,7477
0.07,2339
0.0063,4794
-0.00442,5358
-0.0704,6234
1.66,85
0.225,922
-0.0586,7518
0.0185,4354
-0.0928,7843
0.0202,4743
0.0126,4565
-0.281,10397
0.154,1607
0.0218,4311
0.16,1040
0.215,667
0.412,1845
-0.1,9109
-0.00746,5490
-0.379,7342
0.149,3348
-0.0535,6518
-0.0633,5958
0.0743,3260
-0.109,8786
-0.0961,6681
0.181,1708
0.0478,3513
0.0658,3097
-0.151,9521
-0.105,10207
0.193,1129
0.397,411
0.506,154
-0.124,8079
0.142,379
0.0904,1927
-0.305,9038
-0.118,7377
0.209,1156
0.115,1941
0.218,340
0.248,939
-0.266,9969
-0.208,9711
-0.344,8750
-0.0362,6313
0.00263,4769
0.104,1208
0.0665,2528
0.425,175
0.0157,4371
-0.0977,8025
0.102,1198
-0.112,6902
-0.109,8458
-0.0824,6831
-0.167,8038
0.395,229
-0.0419,6343
-0.0314,6289
-0.0822,6700
-0.167,9015
0.212,235
-0.0358,6623
0.127,1068
0.337,110
0.237,96
0.0219,4174
0.0221,3861
-0.102,8953
0.0279,3886
0.00422,4805
0.121,754
0.259,1368
0.1,609
-0.0185,5659
0.121,1876
-0.0131,5195
0.0309,4108
0.116,2316
-0.0558,7253
0.162,791
0.0127,4626
-0.0251,6460
0.12,2294
0.0751,3233
-0.0839,6526
0.727,116
-0.0799,9120
-0.00591,5497
0.0927,2444
-0.103,7290
0.0769,2159
-0.0863,6141
-0.00663,5064
-0.15,8826
-0.212,6747
0.0776,4123
-0.0828,7374
0.168,2832
0.125,3274
-0.14,9107
0.657,1959
-0.122,4110
-0.15,7205
0.926,989
-0.202,9070
0.301,571
0.121,2746
-0.18,7946
-0.0478,7285
0.0643,3043
-0.0134,5258
-0.167,9311
-0.148,6679
0.101,2762
0.00507,4882
0.0909,2381
-0.186,9964
-0.0518,7061
-0.0602,6156
-0.119,8570
0.0164,4073
-0.101,8370
-0.151,8332
-0.237,8582
0.0764,2351
0.0665,1528
-0.138,8528
-0.0598,6125
0.183,1356
0.185,2249
-0.245,8374
0.0477,1156
0.0325,2888
0.216,1109
0.5,60
0.0173,4502
-0.0174,5395
0.206,1072
0.0706,2341
0.0523,3375
-0.215,9848
0.0987,1706
0.00574,4774
0.124,1040
0.0535,2916
-0.211,10386
0.158,1231
-0.24,9282
-0.0513,6119
0.156,2439
0.0845,3131
-0.00208,5201
-0.0865,7569
0.0578,4028
-0.024,6051
-0.00238,5115
-0.0761,7824
0.0731,2455
-0.188,10223
-0.294,9896
0.191,330
-0.0335,5666
0.178,735
0.0166,4137
-0.0567,7291
-0.148,9703
-0.0581,6325
0.39,801
-0.122,9563
0.401,69
-0.136,8772
0.16,1085
0.166,1460
-0.0704,8543
-0.032,5689
0.127,1699
0.0545,3474
0.0939,2515
0.347,1649
-0.149,8618
0.0437,3112
0.00818,4424
0.151,2035
0.0719,3337
0.391,74
-0.0951,9437
0.23,342
0.0635,2431
0.171,574
-0.00955,5299
-0.324,10390
0.178,2392
-0.121,7976
-0.102,8941
-0.203,9254
-0.14,9316
0.0916,3702
0.097,3596
-0.099,8429
0.1,1423
0.0616,3307
0.0888,1943
0.00846,4925
0.176,1260
-0.134,7313
-0.152,10098
-0.0299,6094
-0.206,9315
-0.0964,7718
-0.178,8388
0.00759,4928
0.267,321
-0.126,8550
0.0461,4031
-0.0582,5933
-0.142,7835
0.154,52
0.123,3215
0.0756,3306
-0.0348,6237
-0.194,8697
-0.0319,5384
-0.148,10316
-0.142,10051
0.0458,4030
0.203,2425
-0.0161,5303
0.146,3150
-0.147,9509
0.202,311
-0.0824,7188
0.0412,3529
-0.382,10223
0.0457,3641
0.287,554
0.0794,2840
0.0988,2848
-0.0512,6185
-0.222,9776
-0.0139,5480
-0.0998,7568
0.0529,4072
-0.12,8506
0.449,653
-0.143,8443
-0.059,6536
-0.222,7930
-0.000392,5361
-0.00376,5377
-0.0305,6602
-0.216,8173
-0.22,8673
-0.151,9678
0.0983,1171
-0.301,8665
-0.0474,7238
-0.152,8724
0.0979,2711
0.0156,4825
-0.0616,9972
-0.0211,5713
-0.236,9357
0.0624,3734
-0.144,7601
-0.121,9256
0.0547,828
0.0553,3018
-0.0456,6244
0.0848,2626
-0.0493,6605
0.0218,4214
0.0472,3613
-0.0807,6413
0.0512,3425
0.154,1921
-0.128,8396
-0.0201,5399
-0.22,10453
-0.0979,7894
0.194,1542
-0.0465,6819
-0.162,8496
0.176,1590
0.0579,3101
0.172,1100
0.071,2801
0.0674,4087
0.034,3954
0.0169,4112
0.011,4460
-0.0134,5409
-0.0227,5725
-0.0919,8507
0.034,3945
-0.0734,8711
0.0797,1961
0.254,491
0.0958,2735
0.385,167
-0.185,9065
-0.3,9128
-0.0726,8306
-0.263,10195
-0.324,9817
0.624,560
-0.109,7749
0.0525,3556
-0.0512,7789
0.00578,4968
0.0913,2067
-0.14,7812
0.146,1659
-0.0424,6890
0.00554,4954
-0.541,8912
-0.102,7620
0.368,46
-0.18,8255
-0.0863,8633
0.0469,3241
-0.0918,7251
0.0611,3832
-0.121,8173
-0.0518,6661
0.0894,1888
-0.0694,8310
0.305,1143
0.0264,4458
0.0666,3078
-0.408,6001
0.0606,1850
0.186,600
-0.374,8024
-0.157,9423
-0.252,9775
-0.412,9372
-0.138,8335
0.0398,3733
-0.112,9318
-0.0885,7555
0.123,2312
0.0141,4364
-0.169,9390
-0.31,10218
-0.0939,6874
-0.105,8290
-0.216,8443
-0.0955,7125
-0.0815,8629
-0.211,10270
-0.0546,6554
-0.073,8097
-0.252,9120
-0.0126,5045
-0.16,9556
-0.121,7347
-0.0921,7246
0.152,2490
-0.235,9788
0.0407,2878
-0.082,9395
0.0701,1915
-0.112,8662
-0.146,7573
0.0658,2614
-0.135,7182
-0.0824,7993
-0.0694,7290
-0.0507,7297
0.734,27
-0.125,9466
0.234,563
-0.166,7992
0.0151,4645
-0.0259,6079
0.544,1025
0.241,586
1.16,887
-0.0789,8224
0.113,653
0.0813,3230
-0.058,6658
-0.000995,5175
-0.525,7746
-0.115,10120
-0.413,8942
0.0456,3574
-0.204,10207
-0.513,6847
-0.237,8370
0.192,213
0.106,2142
-0.051,6842
0.0397,3549
-0.0684,8074
0.0515,3709
0.00855,4740
0.0769,1429
0.22,912
0.256,925
-0.0605,4859
-0.372,9835
-0.0646,8195
-0.0372,7385
-0.155,7010
0.122,3115
-0.144,9006
0.115,2437
-0.107,8882
0.0582,3018
0.0249,4437
0.35,368
-0.166,6497
-0.232,8720
0.0483,2690
0.067,2840
-0.206,7918
-0.276,9543
-0.0477,6415
0.102,2666
0.0537,2873
0.026,4318
-0.146,8675
0.0632,2495
0.0174,4278
-0.0718,6937
-0.0083,5661
-0.196,9459
-0.0384,5595
-0.0757,8282
0.161,472
-0.109,7990
0.184,1207
0.238,1383
0.121,1963
-0.074,8062
0.0352,3135
-0.0883,6688
-0.104,8482
-0.155,9119
-0.26,10009
0.749,258
-0.0385,6370
-0.159,8547
0.0202,4345
-0.0102,5398
-0.0915,7174
0.0636,2658
0.135,1462
0.0416,4216
-0.194,9634
0.016,4532
0.407,525
-0.0411,6878
-0.0641,7193
-0.235,5715
-0.0661,6894
-0.059,6065
-0.0158,5476
0.0212,3821
0.0054,4813
0.199,1456
-0.388,10442
-0.133,9508
0.182,1758
-0.00501,5225
-0.213,9745
-0.151,7920
0.066,3473
-0.0776,8535
-0.0867,8090
-0.0817,7337
0.0109,4416
-0.113,8589
-0.0255,6097
0.0145,4629
0.035,3446
0.169,1892
0.0611,2273
0.394,2313
0.0343,4449
0.698,420
0.0936,2870
-0.126,9554
-0.0223,6026
-0.168,10333
0.0587,3458
0.0799,3310
0.0442,3383
0.0669,1210
0.031,4212
-0.0946,7233
-0.0135,5174
0.0258,4630
0.0128,4652
-0.213,9073
-0.168,9660
0.0323,4089
-0.122,9075
0.0554,2762
-0.0679,7995
-0.123,8697
0.066,3229
0.00623,4828
0.138,2803
-0.0141,5566
-0.0581,6927
0.0274,4213
0.372,153
0.124,2152
0.268,677
-0.278,8673
0.0493,2912
-0.0284,5745
-0.198,9802
-0.412,10411
0.142,1203
-0.0711,9363
-0.0796,6451
-0.194,10140
0.0375,3532
0.00192,4875
-0.215,9494
0.0329,3118
0.159,1040
0.294,564
0.119,3048
-0.107,7769
-0.298,8832
-0.159,9790
-0.177,8441
0.0616,3210
-0.0392,6577
0.245,935
-0.141,7289
-0.0223,6242
-0.223,9626
-0.0114,5316
-0.175,8188
0.316,1526
0.332,641
0.0691,2843
0.0495,4010
-0.271,9498
-0.11,8255
0.00658,4781
-0.0553,5892
-0.101,7374
0.0948,1491
-0.0446,7561
-0.106,8146
-0.0253,6012
-0.168,7716
-0.063,7606
-0.0352,6732
0.0159,4738
-0.0118,5190
0.397,1469
-0.118,7192
-0.198,10254
-0.0471,6858
0.012,4810
0.0474,3572
-0.136,8175
-0.0567,8425
0.0753,2121
0.0262,4468
0.161,2746
0.0522,3021
0.127,1881
0.0186,4406
-0.127,8364
0.213,617
0.0074,4811
0.0452,3842
0.072,4087
0.0791,3850
-0.0962,9067
0.196,411
0.00181,4819
0.0983,3091
-0.327,10205
0.0489,4314
-0.0735,8285
-0.0109,5848
-0.321,9476
-0.216,8783
0.122,1952
0.104,1832
-0.0186,5317
0.0943,1693
-0.00975,5366
-0.0538,6347
0.0106,4815
0.066,3170
-0.00449,5073
0.0207,4446
-0.0276,6462
-0.0152,5682
0.177,1309
-0.126,7561
-0.153,10135
0.137,1147
0.0554,3426
0.245,928
0.0399,3569
-0.172,7370
0.239,389
0.0197,4137
0.0821,2654
0.109,1516
0.176,2101
0.0743,2538
0.0153,4341
-0.0529,7144
-0.241,5055
-0.127,7548
0.265,686
-0.121,7304
-0.247,9075
-0.0541,7020
-0.0279,5388
-0.338,6489
0.00673,5002
0.142,306
0.0285,3373
-0.007,5271
-0.0271,6565
0.148,2201
0.203,2120
0.044,3636
0.0263,3966
0.0931,2556
-0.0224,5117
-0.155,7616
0.177,2314
0.091,1921
-0.0398,7322
0.116,2189
-0.126,7929
0.119,2962
0.0758,3367
-0.101,8038
-0.0623,8964
0.211,1631
0.0424,3765
-0.111,9044
-0.198,8122
0.0619,3455
-0.158,10118
0.136,1893
-0.0377,5702
0.0594,3732
2.75,333
-0.198,10133
-0.137,10227
0.0161,4700
0.129,1958
0.117,2647
0.177,297
0.234,414
-0.0963,9049
0.0436,3697
0.239,858
-0.31,10078
0.106,2626
-0.00857,5270
0.0513,2335
0.0275,4033
-0.0362,5758
-0.0457,6278
0.314,628
-0.0749,8486
0.132,1540
0.169,668
-0.113,8386
-0.227,10001
-0.000739,5233
0.19,125
-0.0473,6898
0.186,274
-0.0646,7085
0.117,1690
-0.33,9337
-0.0724,7027
0.0222,3678
0.189,845
-0.102,8111
-0.0667,6058
-0.379,10392
-0.157,8972
-0.015,5692
0.114,1915
-0.19,8463
-0.136,9300
0.0784,3314
0.0389,4295
0.12,974
-0.076,7152
0.347,1055
0.211,161
0.141,2129
-0.269,10122
0.0369,4324
0.366,323
-0.031,6254
0.0355,3385
0.00879,4682
-0.0927,7017
-0.217,9604
-0.0763,6473
-0.0509,5206
-0.0875,6509
-0.034,7103
-0.1,9018
0.0629,2774
0.0488,3986
-0.382,9679
-0.0432,6885
-0.0494,7683
-0.0911,7579
0.238,381
0.0592,4133
-0.0717,6051
-0.202,8927
-0.155,9761
0.0879,2149
-0.0642,7092
0.000835,5012
0.195,1600
-0.187,8767
-0.0756,6493
0.0906,1198
0.141,846
-0.00557,5168
-0.0549,6479
-0.107,8485
-0.0301,6237
0.134,1833
-0.0329,6403
0.0636,2407
0.257,477
0.0674,2178
0.0146,4544
0.000734,5173
0.1,2542
-0.0104,4846
-0.142,8805
-0.0489,6612
0.00418,4839
0.108,2511
0.0735,3242
-0.127,8534
-0.166,7117
-0.00365,5266
-0.0773,7595
-0.0668,6759
-0.0081,5508
0.0561,3484
-0.0889,7091
-0.0255,7253
0.14,1415
0.178,3010
0.696,404
0.0243,3804
0.211,437
-0.184,9767
0.0469,2797
0.00965,4690
-0.104,8960
-0.0641,7030
-0.106,6856
0.0212,4588
-0.00364,5630
-0.162,8304
0.222,1096
-0.27,9523
-0.0733,6580
0.178,919
-0.017,5575
0.0464,4103
-0.0485,6445
-0.0908,6314
-0.245,9212
-0.0415,5666
0.0473,3588
-0.162,9228
-0.217,8892
0.398,1799
-0.257,7267
-0.0308,6342
-0.138,7443
3.58,53
0.766,964
0.301,1776
0.224,1181
-0.0157,5611
-0.0371,7133
0.0846,2003
-0.0597,6193
0.125,1544
0.00562,4763
0.104,1271
-0.0627,7221
0.161,676
0.00202,4989
0.129,1280
0.121,2971
-0.0107,5696
-0.0251,6955
0.0386,3578
0.753,39
0.0742,2839
0.16,1928
0.148,908
-0.00459,5411
0.00811,4570
0.093,1328
-0.0488,7686
0.143,2576
-0.0271,6326
-0.0452,7136
-0.144,9721
0.0999,2364
0.15,2836
-0.0176,5729
-0.0583,7306
-0.0613,7555
-0.264,9910
-0.188,9921
-0.235,8104
-0.143,7776
0.0925,2059
-0.153,8632
-0.0578,7785
0.0825,3150
-0.00158,4873
0.0698,1966
0.0365,4147
0.0264,4526
-0.0863,7110
0.225,479
-0.09,7158
0.316,397
0.00272,4672
-0.102,8807
-0.0834,7354
-0.0217,5533
-0.0671,6231
-0.0548,6079
0.04,3121
0.107,728
0.492,353
0.322,1932
0.27,1031
0.366,220
-0.0553,6765
-0.218,8325
-0.00282,5024
0.213,1042
0.0857,2201
-0.0785,6543
-0.0631,6127
-0.0237,5695
-0.254,10337
-0.114,8558
-0.07,6738
-0.493,9933
-0.0549,7258
0.0248,4309
0.0505,2499
-0.103,7332
-0.0654,5509
0.084,2155
-0.0239,5479
-0.13,9490
-0.111,6120
-0.238,9587
-0.0259,5886
0.127,1883
-0.0835,9333
