coef,rank
-0.252,8892
-0.141,8506
-0.221,10726
-0.343,9819
1.04,1323
0.438,2212
0.4,1811
-0.0432,6587
-0.0206,5856
0.216,1269
0.0593,3887
-0.165,8259
0.026,4458
0.107,1740
0.0384,4375
-0.324,10684
0.161,3386
0.608,862
0.03,4164
-0.0351,7595
-0.0723,7358
0.238,461
-0.403,9989
0.381,1232
-0.263,10619
-0.0168,5492
-0.0746,6386
-0.0643,6371
0.029,4490
0.0213,4411
0.323,604
0.102,2441
-0.0965,7418
0.427,1176
-0.0856,6975
-0.12,7427
0.242,697
-0.0282,6527
0.00383,5162
-0.254,9014
-0.0182,5733
0.3,867
0.0285,4353
0.108,866
0.162,2142
-0.0803,7393
0.197,2016
0.221,1998
0.0158,4407
-0.0693,8926
0.016,4952
-0.151,9427
0.123,2999
0.102,3311
0.259,1079
-0.0582,7634
0.00535,4967
-0.2,8220
-0.459,10345
-0.104,6954
0.0502,3119
-0.0761,8204
0.274,1369
-0.11,7464
-0.114,9406
0.0185,4400
0.0885,3113
0.0447,3755
0.0349,4446
-0.00519,5501
-0.165,9144
-0.36,8725
0.104,2305
-0.0877,7871
0.149,2215
0.0605,4086
-0.279,8648
0.418,23
-0.0164,5789
-0.266,10887
0.136,2132
0.0438,4139
-0.321,9061
0.201,2535
0.229,286
-0.117,9017
-0.0587,7074
0.122,3407
0.166,1859
0.1,3503
-0.102,9231
-0.0516,7915
0.176,2002
-0.226,9655
-0.254,9113
-0.324,10206
0.378,565
-0.244,10840
-0.173,7678
0.179,572
-0.104,7817
0.129,2718
0.055,3672
-0.0616,7356
0.167,1318
-0.0726,6935
-0.0707,6138
0.00123,5201
0.107,3179
0.113,2817
0.0413,4286
0.247,772
0.369,2293
-0.128,7549
-0.0209,6310
-0.0811,8919
-0.318,10181
0.106,2776
-0.0486,7282
-0.177,8894
0.167,1893
0.00541,5045
-0.0658,7884
0.0761,2786
0.477,513
-0.0111,5102
-0.0342,6658
-0.038,6160
0.268,1408
-0.204,9560
0.155,2599
-0.0622,6547
0.0552,3504
-0.0347,6574
-0.229,8937
-0.129,9353
-1.08,10359
-0.163,7198
0.101,1977
-0.0129,5836
-0.191,8495
0.105,1914
0.0917,3696
0.0925,3373
0.248,850
-0.09,8144
0.109,3273
0.0201,4785
0.0983,2476
0.0864,3714
0.124,1927
0.16,930
-0.00868,4497
0.213,1458
-0.0269,5423
-0.0991,7565
0.043,4046
-0.162,9318
0.28,1600
0.382,234
0.0223,4796
-0.103,8409
-0.0924,7646
-0.0302,6956
-0.021,5695
0.13,2702
0.1,2249
-0.138,9886
0.195,1884
-0.0512,7251
0.146,2368
0.429,974
-0.0201,5924
-0.181,10406
-0.0491,8238
-0.0141,5558
-0.188,10366
0.303,946
0.396,1998
-0.0167,6111
-0.126,9165
0.0119,5149
-0.119,8329
-0.11,8305
-0.0462,6971
-0.000471,5197
-0.233,10749
0.0332,4456
-0.0882,6906
0.00127,5374
-0.434,9365
0.00608,5120
-0.107,8789
0.0141,4818
0.081,2836
0.0795,3532
-0.0441,5540
-0.0138,5837
-0.142,8153
-0.00764,5436
-0.0819,8451
-0.289,9995
-0.000447,4992
-0.357,9923
0.0285,4071
0.289,394
-0.0254,5965
-0.19,7326
-0.0336,6194
0.111,3131
0.206,747
-0.0526,7529
-0.00599,5465
-0.0808,6879
-0.183,8706
-0.182,8819
0.118,738
-0.254,10841
-0.0264,5963
0.168,2206
-0.161,7790
0.191,2455
-0.248,10110
-0.151,10119
-0.0502,7660
0.453,408
0.422,822
0.129,2545
-0.185,10426
0.0195,4707
0.00668,5179
-0.169,9037
0.14,2626
0.0168,5005
-0.489,10915
-0.00524,5742
0.0112,4790
-0.0137,5533
0.5,696
-0.134,7973
-0.0665,6390
-0.858,10350
0.223,2714
0.0297,4499
-0.00556,5238
0.0828,3694
-0.0513,7209
0.0316,4680
-0.261,10144
-0.159,9241
0.66,2247
0.249,1948
-0.179,10486
0.0617,2921
-0.108,6863
-0.319,9338
0.113,3589
-0.098,5627
0.0308,4544
0.203,827
0.0383,4260
-0.0206,6077
0.0775,3851
-0.397,10945
-0.00645,5584
-0.22,9890
-0.166,7544
-0.0566,7081
0.0898,3287
0.204,2093
0.152,2171
0.0748,2127
-0.0834,7557
0.146,2189
-0.258,9888
0.424,84
-0.127,8368
-0.232,9269
-0.0209,5883
-0.0364,6095
-0.172,8670
-0.209,10198
-0.0694,7267
-0.0753,7096
0.335,519
-0.224,9248
-0.192,8722
0.0949,3179
0.0632,2982
-0.151,9149
-0.314,10482
-0.106,7100
-0.233,9422
-0.241,9636
0.274,69
0.044,3830
0.33,1544
-0.0449,6390
0.00254,5131
-0.113,6779
-0.133,8748
-0.0595,7136
-0.132,8837
0.122,2659
-0.164,9090
-0.0894,6213
0.0586,2655
-0.506,10991
-0.351,10992
-0.63,10978
-0.226,8644
-0.00318,5138
-0.164,10364
0.0743,3252
-0.0506,6882
-0.284,8739
-0.0786,6729
-0.0529,6536
-0.258,9341
0.515,437
-0.0932,6910
0.126,2588
0.238,1686
0.526,1242
-0.0477,7088
-0.0106,5674
-0.0372,6446
-0.122,8188
0.022,4262
-0.243,8563
-0.0408,7022
0.1,2449
0.0486,4393
-0.0671,6319
0.0941,2767
-0.131,6722
0.199,651
-0.0837,8449
0.0693,3153
-0.0368,6576
0.0513,4030
0.16,2561
-0.301,11005
0.145,3236
0.256,1920
-0.073,8649
-0.152,10378
-0.283,10208
0.174,1042
-0.0841,7575
-0.877,10049
-0.113,5909
-0.469,6763
0.161,3419
0.0221,4836
-0.234,6842
0.277,1498
-0.278,10200
0.313,449
-0.0972,7619
-0.0444,7560
-0.0257,6521
-0.694,9669
0.159,2517
0.0854,3461
-0.222,9312
-0.0276,6212
-0.0606,8036
-0.149,6490
-0.0319,6043
-0.0615,7259
0.276,822
-0.214,8898
-0.0494,7030
-0.117,8175
-0.365,10341
-0.281,9622
-0.205,7406
-0.119,8013
0.2,680
-0.0667,6150
-0.143,10563
-0.194,8971
-0.189,7286
-0.112,8661
0.163,1474
0.139,1892
-0.312,10578
-0.189,6793
0.146,2515
-0.0728,7757
-0.0828,7675
-0.158,9148
-0.343,9742
-0.0696,7023
-0.1,6307
-0.0394,6259
0.161,1070
-0.333,9263
-0.153,9384
-0.108,7490
-0.0883,7586
-0.086,7642
0.0155,4801
-0.133,8529
0.106,3076
-0.183,8811
-0.452,9740
0.0255,3076
0.075,2990
0.118,2918
-0.255,9459
0.284,1054
0.186,2111
-0.0638,7791
0.177,42
-0.0122,7109
-0.115,8014
0.0152,5000
-0.124,8286
0.354,1503
0.182,400
-0.238,9466
-0.0291,5755
0.1,3190
0.052,4450
-0.145,8264
0.0877,2545
-0.246,10160
0.00493,5185
-0.315,10298
-0.111,8081
-0.0811,8209
-0.00192,5591
-0.0703,7068
0.0933,3126
-0.0641,6586
0.086,2928
0.0299,4689
0.114,2189
0.0941,1811
0.0247,3434
0.16,3389
0.411,515
-0.216,8022
-0.00693,5642
0.141,2808
-0.0465,6248
0.319,2076
0.211,1879
0.206,2608
-0.0265,6293
-0.134,6983
0.257,2011
-0.215,10134
-0.125,7178
0.0175,4945
0.154,658
0.00872,4986
-0.277,10318
-0.124,7950
-0.212,10114
0.0856,2830
-0.0184,6083
0.333,1192
-0.0454,6182
0.046,4437
-0.0986,7978
0.22,1990
0.0587,3708
0.322,156
-0.186,8723
-0.168,8619
-0.0267,6224
-0.196,9796
-0.121,8289
0.244,989
-0.0174,5597
0.242,2488
-0.228,10398
0.152,1996
0.162,916
0.0665,3927
0.0353,4176
-0.246,9732
-0.0586,6127
-0.372,10980
-0.00857,5683
0.0346,4180
-0.0568,6927
-0.092,8305
-0.0838,7578
-0.186,9778
0.0417,1922
0.143,2110
0.0768,2790
-0.0773,6065
0.209,2700
-0.157,9854
0.428,35
-0.0699,7929
-0.414,10986
0.11,2840
0.339,2304
-0.0161,5567
0.0824,1734
-0.0937,8659
0.641,424
-0.0127,5844
0.214,2802
-0.177,8627
0.0923,3516
0.0632,3111
-0.699,10826
0.207,3020
0.732,436
-0.246,8492
0.0962,1800
-0.178,10352
0.428,11
0.182,744
-0.0676,6234
-0.246,10020
-0.204,10654
0.0456,4286
0.433,1903
-0.167,7909
0.309,1648
-0.167,6131
0.165,983
-0.202,10098
-0.0445,5998
-0.132,8567
0.127,2257
0.0567,4430
-0.089,8191
-0.0174,6370
0.0598,4296
-0.498,9127
0.396,2457
-0.492,8883
-0.0533,7049
0.615,164
0.0935,2620
0.119,2745
-0.0344,5937
-0.08,7434
-0.0147,5548
-0.34,10719
0.0013,5440
0.17,1623
-0.0788,5955
0.0132,5052
0.127,2020
-0.0603,6487
0.0533,3860
0.0132,4649
-0.285,10418
-0.24,9913
-0.0376,6287
-0.0147,5392
0.103,2831
-0.0205,5859
0.319,778
-0.0015,5466
-0.0926,8415
-0.162,9906
-0.225,10349
-0.0792,7650
-0.118,7294
-0.0551,7440
0.124,2092
-0.189,8619
-0.0416,6322
-0.108,7989
0.67,14
0.18,2027
-0.0767,7517
-0.0294,6605
-0.407,9686
-0.0871,7541
0.0396,4226
0.828,725
-0.136,9245
-0.0902,7690
0.0633,4079
0.0324,4301
0.274,209
-0.506,11018
-0.0463,6946
-0.109,8621
0.0822,3392
-0.0268,6199
0.205,2553
-0.125,7106
0.0163,4551
-0.161,8787
-0.191,8605
0.221,1034
0.246,1249
0.0664,3634
0.235,850
0.127,2114
0.365,695
-0.162,7851
0.0724,3654
0.159,2933
0.101,2493
0.0759,2820
0.364,1215
-0.00221,5445
-0.527,10627
-0.719,10722
-0.371,11005
0.225,712
-0.332,10728
0.0765,3177
0.0767,3688
0.333,728
-0.198,10009
-0.208,10648
-0.0603,8137
0.0463,4095
-0.131,8789
-0.0958,7815
-0.0301,6158
0.00869,5060
-0.0361,6544
-0.235,8919
-0.414,8351
0.094,2792
-0.0502,7408
-0.0712,8660
-0.0604,7722
0.086,3816
-0.109,7474
-0.0188,6137
0.118,753
0.00389,5067
0.241,1516
-0.0461,6182
-0.278,9523
-0.0344,6174
0.356,395
-0.0408,5945
-0.035,6160
0.133,3249
-0.125,8630
-0.234,10905
0.0867,2664
-0.562,7690
-0.0846,8490
-0.349,9714
0.0586,4129
0.0193,4866
-0.459,10277
-0.607,9548
-0.994,9521
-0.123,6569
-0.0881,5856
0.152,2954
-0.201,9098
0.0762,3308
-0.203,10166
0.00971,5366
0.0956,1093
0.325,1005
-0.236,8433
-0.744,10975
-0.11,8977
-0.112,8403
-0.149,9858
0.284,1248
-0.307,10858
-0.121,7325
0.0123,4785
0.0234,4831
0.218,1342
-0.352,9830
-0.206,9006
0.0885,3539
0.107,3337
-0.166,10114
0.105,2402
0.38,1021
-0.109,8991
0.244,1651
-0.287,9934
-0.0396,6752
-0.457,10898
0.356,515
-0.374,8854
0.149,2236
0.157,2785
-0.181,9720
0.0967,2701
-0.563,10996
0.0426,4242
-0.0893,6981
0.213,2169
-0.308,10249
-0.243,10460
-0.11,7962
-0.327,8144
-0.101,7065
-0.0915,7227
0.0855,3050
0.144,1962
-0.153,9954
-0.0119,5467
0.242,2837
2.76,396
-0.271,10854
0.00423,5159
0.0326,4356
0.294,939
-0.121,10051
-0.202,8330
-0.0226,5827
-0.0748,8330
-0.679,10973
-0.00574,5282
0.0632,3752
0.262,1193
-0.0964,7426
0.239,417
0.0227,4978
0.343,1206
0.164,3779
0.232,2234
0.0604,2987
0.253,1257
0.0786,3619
-0.212,10390
0.0928,3048
-0.0876,6181
-0.0533,6477
-0.00842,5639
0.146,2156
0.057,3529
0.178,3191
-0.55,9074
0.0275,4604
-0.135,9801
0.0508,3800
0.102,2784
-0.0269,5946
0.45,562
0.0636,3231
0.0645,3547
0.027,4399
0.142,3260
-0.0463,6568
-0.0282,6395
-0.154,9850
-0.0745,8630
-0.0746,7234
-0.0204,5483
0.194,296
0.367,374
-0.00724,5500
0.00924,4941
0.0252,4698
0.364,497
-0.14,8299
-0.203,7851
0.0896,3299
0.131,2880
-0.16,8937
0.308,2048
-0.361,10264
-0.343,10852
0.101,2084
0.044,4731
0.0985,3903
-0.254,9751
0.0814,3785
-0.0236,5847
-0.234,10702
0.0747,3604
-0.142,7639
-0.0101,5846
0.224,3060
0.00445,5175
0.264,981
0.00803,5300
-0.161,9082
0.266,1573
-0.131,8831
-0.335,9847
-0.207,10453
0.108,2387
0.0649,823
0.0129,3064
-0.00603,6149
0.017,2418
-0.0301,10055
-0.433,6733
0.0394,4421
-0.229,6675
-0.362,6993
-0.535,7483
-0.146,8639
-0.167,8669
-0.497,9690
0.141,2862
0.9,183
-0.0804,7948
0.134,2947
3.87,190
-0.243,10349
-0.328,10110
0.111,930
-0.193,9704
-0.0275,5927
0.149,3241
0.213,2258
-0.143,6779
-0.319,10067
-0.0807,7361
0.0977,3424
-0.291,6524
0.117,3461
-0.135,7845
0.222,3373
-0.244,10119
0.15,1877
0.121,3194
0.129,2629
0.0261,4654
0.0451,3642
-0.14,8069
-0.272,9402
0.286,469
-0.59,10783
0.176,1887
-0.00673,5749
0.0156,4551
-0.107,7858
-0.108,8269
-0.225,9686
-0.0414,5877
0.0464,4033
-0.102,8146
-0.178,8576
0.105,3201
0.162,2241
-0.0924,8616
0.00738,5244
-0.334,10901
0.0511,3929
-0.0298,6501
0.211,2211
-0.111,6517
-0.11,8230
-0.00192,5058
-0.911,10628
0.0382,4178
-0.0681,6268
-0.214,9320
0.0953,2784
-0.383,10905
-0.216,8456
-0.171,10437
-0.00918,5123
-0.161,9381
0.013,4643
0.149,1508
0.127,2068
0.192,1484
0.0712,3690
-0.263,8851
0.0734,2869
-0.0912,8738
0.254,2962
-0.239,9348
-0.00852,5661
0.254,1162
-0.164,9657
-0.142,9983
0.271,3041
-0.0238,4640
-0.117,8917
-0.012,4951
-0.00183,5123
-0.129,10067
-0.208,8406
-0.038,6398
0.0129,5100
-0.031,7159
0.029,4730
-0.0408,6680
-0.333,7911
0.0378,4726
-0.884,10027
-0.173,8163
-0.104,7495
-0.13,8208
0.065,4222
-0.00652,5657
0.0201,4531
-0.244,10520
0.156,1667
-0.288,10488
-0.159,8693
0.0452,4213
0.202,1411
-0.021,6042
-0.0804,7409
0.0289,4788
0.126,1901
-0.104,7057
-0.103,7459
-0.122,7943
-0.0467,6883
-0.0586,5786
-0.594,10973
0.0248,4816
0.193,1972
-0.0193,5790
0.385,154
0.0907,3581
0.137,1987
0.292,808
0.0231,4671
-0.0774,7885
0.0403,2901
-0.204,9585
0.00437,5365
-0.0541,6300
-0.126,10359
-0.287,10265
0.164,818
-0.746,10880
0.0849,3592
-0.136,7424
-0.0945,6781
0.0777,2248
0.323,555
0.328,2359
-0.264,10411
-0.029,6118
-0.144,7224
-0.122,9265
-0.37,10854
-0.0927,6427
0.0629,3982
0.22,1382
-0.504,10870
-0.0745,8853
-0.174,10019
-0.0478,5942
0.0832,3153
-0.0828,6552
0.195,2837
-0.286,9786
-0.027,6015
-0.139,8394
0.208,1625
-0.0684,8100
-0.263,9813
0.159,3244
0.201,2212
-0.0345,5723
0.0889,2470
0.135,2379
0.105,2842
-0.31,9234
-0.578,10665
-0.843,10065
-0.033,6686
-0.0608,7229
-0.0757,5770
0.201,1379
0.672,291
0.0453,4440
-0.017,6305
0.00789,4956
-0.119,10259
0.529,260
0.0559,3327
0.0304,4306
-0.00557,5770
-0.0897,8097
-0.221,9685
0.18,1084
0.374,995
-0.0856,6227
0.161,1946
0.145,2282
0.019,4946
-0.115,7900
-0.158,8612
0.118,3365
0.309,915
0.196,981
-0.0423,6026
-0.188,8292
0.00144,5283
-0.0561,6815
0.0453,4072
0.0382,4690
0.0486,4192
0.0908,2751
0.0643,3984
-0.279,10745
-0.0147,6748
-0.303,9872
0.392,2199
-0.1,5860
0.0329,4579
-0.188,10531
-0.0782,7765
-0.246,9460
-0.0712,7552
0.588,1090
-0.238,10829
-0.0633,6744
-0.142,10181
-0.0762,6866
-0.166,8223
-0.219,6638
0.379,1067
0.363,1151
0.0589,3874
0.265,1507
-0.212,9705
-0.232,9285
-0.154,7542
0.0615,3249
-0.18,9839
0.812,335
0.217,1487
0.034,4588
0.00242,5179
0.0421,3788
0.153,1818
0.0255,4762
-0.0982,7423
-0.171,8186
0.0696,4095
-0.217,9884
-0.0719,7386
0.218,1055
-0.0923,6856
-0.0561,7410
-0.487,8606
-0.122,10216
-0.114,8851
-0.265,9867
-0.065,6424
-0.386,9739
-0.0292,6066
0.12,3019
0.642,233
0.695,63
0.0253,4624
0.0776,2351
0.243,877
-0.134,9584
0.176,1175
0.0883,2587
-0.197,10342
-0.284,10181
0.13,2853
-0.0593,7749
0.0108,4904
-0.115,8463
-0.165,9071
0.219,787
-0.0391,5735
-0.0037,5371
0.104,2039
0.231,2989
0.127,2812
0.114,2503
-0.633,11003
-0.0484,6741
0.0214,4809
0.185,2301
-0.133,9144
-0.919,10075
-0.151,8720
-0.246,10401
-0.0377,6462
-0.0352,6735
0.0935,3886
-0.124,8814
0.233,1163
-0.0678,7554
0.257,2037
-0.364,10445
-0.0593,6888
0.15,1402
-0.0527,7629
-0.304,10899
0.244,1262
-0.0277,5525
0.152,2132
0.135,1657
-0.0125,5904
0.0921,2446
-0.0639,7649
-0.0106,5253
-0.17,6779
0.128,1091
0.118,1669
0.0506,4240
0.222,583
-0.294,9331
-0.188,8651
-0.094,6824
-0.142,8886
-0.0343,6081
-0.0278,5977
0.859,270
-0.29,9535
0.0844,2771
0.00731,5132
0.36,749
-0.0807,7447
-0.259,10385
0.0147,4770
0.169,942
0.155,897
-0.183,8538
0.0988,3453
0.0718,3797
0.471,1220
-0.0386,6057
-0.0785,7573
0.167,1563
-0.226,9437
0.12,1632
-0.257,8728
0.0201,4188
0.217,1600
0.15,2481
0.275,2368
0.122,3692
0.128,2665
0.266,724
-0.148,9821
0.189,1273
0.11,2291
0.484,1714
0.148,2764
0.0273,4254
-0.0264,6505
0.0139,4971
0.0313,4518
-0.236,9573
0.378,77
-0.0998,8669
0.0223,4481
0.188,2508
0.0487,4203
0.00504,5173
-0.104,5233
0.17,2310
0.455,416
0.128,2435
-0.195,9686
0.00577,5022
0.113,3050
0.0814,2241
-0.0787,6736
-0.112,7899
0.0748,3558
-0.43,6994
0.239,1805
0.0659,2772
0.101,2518
0.07,3177
0.0254,4546
-0.0641,6417
-0.159,7639
0.158,1332
-0.114,8964
-0.351,10202
-0.0102,5497
0.0735,3816
-0.0722,7110
-0.0809,7198
0.0751,3409
-0.107,7264
0.612,311
0.0358,4542
-0.125,9545
0.0444,4288
-0.417,10891
-0.444,10926
-0.238,10042
-0.0367,6282
0.00624,5208
0.221,826
0.0208,4939
-0.189,10114
0.322,1459
0.0022,5320
0.128,1443
-0.0807,8463
0.069,3068
0.203,2906
-0.277,10495
0.165,1310
-0.135,9321
0.116,3050
-0.536,10366
-0.0159,5790
0.114,2644
0.516,1324
-0.128,9189
-0.165,9131
0.281,405
-0.17,9174
-0.0957,7458
0.00752,4795
0.0574,4166
0.0948,2118
0.0235,4721
-0.118,8074
0.137,3265
0.732,304
0.139,2096
-0.0733,8718
-0.138,8979
-0.0455,6494
-0.178,9199
0.19,1276
0.01,4694
-0.0819,8361
0.0725,3242
-0.179,7796
-0.67,9989
0.245,2796
0.108,3097
0.187,1377
-0.0766,6683
0.0198,4496
0.0748,4042
-0.365,10661
-0.425,10820
0.0549,3992
-0.07,7279
0.0325,4764
-0.125,9387
-0.25,8927
0.0095,5044
-0.0747,8580
0.129,1900
-0.201,8780
0.0727,3415
-0.274,9234
0.0167,4382
0.0811,3247
0.21,1357
-0.173,9417
0.0901,2906
0.538,334
-0.00993,5652
-0.393,9649
0.143,2748
-0.129,7376
0.305,1160
-0.169,5703
0.066,3774
0.906,46
0.0857,3236
-0.0487,6784
-0.411,10772
-0.319,8893
0.142,1732
-0.224,9816
-0.296,10481
0.242,2839
-0.215,10647
0.321,739
0.0237,4230
-0.121,8668
0.0315,4534
-0.167,9582
-0.314,9487
0.134,2467
0.107,858
-0.0913,7052
-0.0568,6714
-0.277,9301
0.0306,4465
0.0675,2986
-0.167,9649
0.105,3204
-0.132,9290
0.191,895
0.0891,2589
-0.0464,7232
-0.0395,6655
0.0879,2991
-0.0274,5304
-0.435,10749
0.0134,4723
-0.0229,5969
-0.179,8856
-0.183,9309
-0.228,8640
-0.361,9869
0.0563,4518
0.175,965
-0.0102,5761
0.187,1263
-0.157,9673
-0.638,10669
-0.0975,8997
-0.00697,5464
0.118,1996
0.057,4213
0.0601,2966
0.304,1635
0.0355,4457
-0.0634,8321
0.0364,4049
-0.106,7906
-0.117,8769
-0.128,8027
-0.253,9174
-0.273,10382
0.147,875
-0.16,8415
0.27,406
-0.0564,6435
0.0134,4935
0.0494,4086
0.118,1165
0.16,1328
0.022,4727
0.308,894
-0.152,8836
0.0113,4781
-0.0094,5788
0.333,704
-0.152,9033
0.209,1579
-0.324,10495
-0.127,9468
0.262,601
-0.0609,6632
0.0217,4708
-0.226,10338
-0.135,7651
-0.0298,6398
-0.0586,7168
0.0168,4916
-0.793,10938
0.0945,2801
-0.067,6858
-0.0878,8528
-0.242,5637
0.324,1881
1.1,559
0.109,4005
-0.179,9855
0.285,914
0.176,3134
-0.12,8134
-0.188,9443
-0.0646,6487
0.0613,3528
0.0836,2121
-0.333,10309
-0.133,7245
0.0514,3901
-0.39,10342
-0.142,9548
-0.221,10810
-0.0147,5440
0.208,1232
-0.197,8630
0.337,11
-0.114,6763
0.26,317
-0.527,10667
-0.0855,8483
0.0249,4541
-0.0955,7788
0.104,1434
-0.0807,7593
0.016,4822
-0.0217,5836
0.0606,4654
-0.227,7526
-0.0445,7048
-0.0445,7763
0.388,590
-0.182,9656
-0.031,5421
0.292,3121
-0.0624,7691
0.0255,4673
0.111,3228
-0.0888,8692
0.0605,4057
-0.282,10533
0.0145,4924
0.115,1379
0.167,473
0.0447,4145
-0.151,9498
-0.139,9492
0.053,2103
-0.00784,5780
0.28,1561
-0.0855,8761
-0.00591,5460
-0.0433,6652
0.113,1751
-0.0327,6541
0.0386,4220
0.24,2286
-0.0135,5707
0.171,3121
0.0405,3851
-0.233,10342
0.0238,2917
0.19,2631
-0.00119,5666
0.557,255
0.0389,4251
-0.0742,5965
-0.411,10735
-0.037,6375
-0.0989,7232
-0.0235,4899
-0.181,9241
-0.332,9622
-0.0367,5916
0.0456,3597
-0.0579,6057
0.102,3611
-0.368,10736
0.0557,3946
0.172,2139
-0.0212,5971
-0.14,9230
0.214,2172
0.0435,3951
-0.0657,6311
0.264,773
-0.111,8542
0.292,237
0.256,506
0.248,1711
-0.0569,5971
0.0425,4319
0.112,745
0.0886,3266
0.238,601
0.281,646
-0.0841,7504
0.524,577
-0.0994,9252
0.135,829
0.0984,2901
-0.259,10259
0.1,2620
-0.0209,5558
-0.273,9484
0.0335,4246
0.046,4160
0.0118,4896
0.0457,4071
-0.252,8732
-0.0831,8313
0.0326,4172
-0.33,10214
-0.00821,5297
-0.0393,5787
0.205,3155
-0.0195,5681
0.472,506
0.044,4234
-0.0371,6436
0.108,3952
-0.202,9623
0.0727,2896
-0.11,8408
-0.0182,5564
-0.0239,6079
0.0485,4415
-0.363,9802
0.128,2172
-0.0868,9604
-0.189,8013
0.215,1542
-0.0848,6886
0.326,2022
-0.0579,7382
-0.134,8910
0.114,2540
0.114,2689
0.365,528
0.115,2732
-0.069,9162
-0.0778,9790
-0.0389,6662
-0.0968,8143
-0.238,7247
-0.0489,6880
-0.0224,6254
-0.184,8445
0.0277,4587
-0.0828,6306
0.0978,4005
0.0603,3781
0.0673,3861
-0.0858,8102
0.00303,5301
0.194,712
-0.169,8123
0.258,809
-0.207,9909
0.00546,5044
-0.0697,6468
-0.284,10346
-0.213,9917
-0.173,9454
-0.183,10924
-0.13,9939
0.063,4225
-0.446,9956
0.296,2252
-0.382,10547
-0.000901,5274
-0.15,9738
-0.066,7636
0.0598,3692
-0.103,7503
0.259,1028
-0.0633,7059
-0.422,10821
-0.11,6555
0.208,2542
0.447,2051
0.0669,3836
0.125,1678
-0.24,9719
-0.238,9120
0.00785,4979
0.168,3286
1.16,179
0.059,2922
0.128,2257
0.164,1496
-0.204,7291
-0.621,9952
-0.0351,5726
-0.0132,5960
0.0733,3077
0.102,3750
0.133,3914
0.0732,2599
0.066,2894
-0.213,10009
-0.118,8612
-0.0302,6761
0.095,2783
0.183,1665
0.0879,3203
0.0253,4459
-0.137,9001
0.14,2517
-0.155,9489
-0.117,6892
0.0444,4402
-0.206,9450
-0.332,10560
0.0758,3602
-0.0373,6501
0.492,808
0.298,800
0.118,1134
-0.0172,6388
0.0863,3859
-0.536,10153
0.0627,4271
0.0415,4689
0.178,684
-0.0217,6174
-0.259,10484
0.00103,5152
0.0544,3758
0.052,4388
-0.0024,5331
-0.0575,6711
0.773,22
-0.223,9867
0.0153,4792
-0.129,7312
-0.211,9634
0.0376,4217
0.157,1834
-0.44,10639
0.0919,2984
0.225,1709
-0.0741,7387
-0.0869,8873
-0.195,9962
0.302,1385
0.459,1475
1.87,12
-0.0575,6665
-0.0797,7824
-0.159,7904
0.0763,4125
-0.0202,6211
-0.115,8932
0.173,914
0.0364,3887
0.00027,5448
-0.0418,6055
-0.121,7719
-0.192,9169
0.342,92
-0.191,10276
-0.0554,6619
0.17,1990
0.0391,3543
0.43,1119
-0.0196,6096
-0.0911,7805
-0.3,9905
-0.319,10043
-0.202,10205
-0.382,10494
0.0172,5071
0.563,929
0.156,1736
0.113,2971
0.399,951
-0.34,10112
-0.164,10019
-0.0665,7740
-0.0369,6711
-0.184,9582
-0.309,9941
0.0419,3848
0.1,1795
0.114,3378
-0.166,6924
-0.0467,6918
0.284,948
-0.0635,7015
-0.341,10502
0.00662,5096
0.0191,5017
-0.0586,6392
0.128,2389
0.318,318
-0.165,8515
-0.0359,6209
0.511,90
-0.343,10041
0.0276,4782
0.0312,4374
-0.188,9117
-0.105,7971
-0.0584,7230
-0.218,9643
-0.0866,6742
-0.126,9818
-0.0127,5875
0.26,2231
-0.114,9380
-0.161,7433
0.213,2740
0.0636,3534
-0.00366,5297
-0.0606,8311
-0.111,8219
-0.0392,6438
-0.166,9398
0.187,717
0.0886,2648
-0.162,8440
0.0215,4889
-0.427,10967
-0.0649,6278
-0.08,7393
0.132,1593
-0.435,10937
0.0377,4232
0.14,2594
-0.16,8177
0.199,1884
-0.0693,7610
0.269,2663
0.172,1096
0.277,566
0.0912,3626
-0.0902,8096
-0.11,8772
0.197,531
-0.25,9527
0.166,2640
0.0713,3789
0.0614,3359
0.00286,5316
0.0944,1891
0.0105,4878
0.00488,5231
-0.302,10243
-0.247,10398
-0.00667,5577
-0.376,8125
-0.396,10321
-0.0468,6192
-0.45,6629
-0.213,9970
-0.0657,5423
-0.0329,6046
0.206,2332
-0.00565,5314
-0.0677,7108
-0.153,9903
-0.229,10729
0.578,714
-0.274,10430
0.0295,4631
-0.00161,5408
0.0294,3775
0.0529,3691
-0.012,5311
-0.149,7805
-0.0424,5509
-0.277,10435
0.0118,4748
0.000333,5254
0.132,2310
-0.0531,5531
-0.201,9416
-0.489,10782
-0.0734,7481
0.0568,3152
-0.0347,6015
-0.0345,5918
0.278,940
0.0507,4009
-0.109,8686
0.433,620
-0.365,6345
0.228,1285
-0.0216,5911
-0.049,6574
0.0907,3258
-0.117,7905
0.249,1899
-0.0162,5851
-0.135,7087
-0.19,10370
-0.0875,9456
-0.079,7074
0.409,299
0.00338,5246
-0.372,10597
-0.0811,8191
0.148,1672
-0.372,9349
-0.126,7775
0.482,424
-0.231,6691
-0.0132,5877
0.302,1060
-0.00984,5636
-0.0351,5429
0.287,1064
-0.773,10635
-0.0522,7165
0.00553,5176
-0.564,8605
-0.475,8116
0.0397,4313
-0.775,10539
0.00763,4997
0.0167,4847
-0.13,6025
0.304,1989
-0.197,8847
0.0805,3942
-0.164,8515
-0.229,10792
-0.131,8959
-0.0117,5509
-0.213,7761
0.0761,3809
0.082,2647
-0.253,10268
0.306,1343
-0.179,9636
0.274,937
0.0411,3713
0.00992,5054
0.287,929
0.728,133
0.0431,3972
0.32,642
-0.104,9047
-0.269,9354
0.423,559
-0.0336,6036
-0.481,10691
-0.149,7844
0.0281,4493
0.152,1315
0.0361,3904
0.538,210
0.157,1920
-0.212,9989
-0.013,6472
0.0155,4549
-0.514,10642
-0.0432,6279
0.199,422
-0.0467,6421
0.0541,3374
0.0417,3771
-0.578,10112
0.136,3536
0.768,839
0.115,2766
0.025,4572
0.296,1181
-0.367,10798
0.15,3238
-0.239,9406
0.218,1286
0.128,2112
-0.115,7829
-0.0344,5463
0.103,3840
-0.0533,6518
-0.0114,5682
-0.0527,7225
0.239,1423
0.0674,2268
0.113,2775
-0.284,9865
-0.44,10877
0.0609,3579
-0.177,9933
0.342,121
0.122,2306
0.186,3070
-0.0211,6443
-0.0199,5945
0.325,121
-0.159,8487
-0.378,10053
-0.221,10022
-0.332,9923
0.108,2487
0.121,2844
-0.173,9611
0.235,780
-0.0569,7735
-0.178,9295
-0.212,10244
-0.159,9379
-0.26,10119
-0.0943,8233
0.106,3012
0.298,451
-0.0901,9237
0.0451,3692
0.00523,5164
0.297,1070
0.062,2799
-0.108,8725
0.241,906
0.17,1901
-0.237,10159
-0.0682,6656
-0.38,10574
0.373,1389
-0.198,9657
0.118,1766
-0.0631,6544
0.00673,5109
0.016,5014
-0.146,8365
-0.165,8606
0.0702,3679
0.00348,5106
-0.145,6092
-0.0463,7425
0.833,54
-0.0318,5892
0.164,1030
-0.0392,5544
-0.103,8002
0.0126,4941
-0.289,8696
0.15,1215
-0.387,10460
-0.185,9473
0.0744,3676
0.118,2094
-0.354,9970
-0.119,9868
-0.0922,8332
-0.222,8867
0.577,296
0.0119,4951
-0.152,9838
-0.0348,7035
0.0547,2933
-0.13,9321
-0.076,6749
0.128,1657
-0.194,9288
0.121,1764
-0.269,9998
0.188,1210
0.174,2250
-0.207,8710
0.174,902
0.254,780
0.0957,3421
0.194,2667
-0.105,8794
-0.282,9228
-0.221,9950
0.0982,1456
-0.205,8762
0.668,17
-0.152,9646
-0.0346,6528
-0.21,9296
0.108,1617
-0.142,8368
-0.0555,6254
-0.0699,6002
0.152,3053
-0.136,6606
0.124,2096
0.00764,4953
0.0949,1875
0.314,1107
-0.157,8304
-0.0167,5514
0.249,770
0.228,815
-0.17,8017
0.0894,3310
-0.126,7391
0.0563,4222
-0.128,9328
-0.0277,6228
0.12,3368
0.189,1213
-0.285,9412
-0.732,10844
0.101,1619
0.149,2701
0.332,792
-0.121,9271
-0.178,8784
-0.57,10565
-0.395,10853
-0.265,9697
0.194,1201
-0.211,9445
-0.00499,5405
-0.0218,6010
-0.0305,6431
-0.263,9232
0.175,2323
0.195,796
0.0316,4537
-0.0938,6899
-0.0472,7936
0.138,1542
0.0512,3480
-0.135,9482
0.0818,3445
-0.203,10397
-0.148,8378
-0.048,7392
-0.0955,7939
0.48,271
0.296,1365
0.18,1256
0.172,1516
0.0253,4531
0.000515,5043
-0.0749,7260
-0.127,8584
0.194,2896
-0.0512,7553
-0.0823,8460
0.153,813
0.191,844
-0.0897,7884
0.0568,4178
-0.0141,5435
0.284,1555
-0.157,9468
0.187,2248
-0.388,10265
-0.0188,5569
-0.258,9317
-0.0113,6202
0.00858,5048
-0.209,9055
-0.0597,6518
-0.0703,6383
0.0731,3445
-0.404,10761
0.043,4378
0.151,2909
0.0612,3509
-0.0113,5721
-0.00935,5563
0.117,2157
0.245,1022
0.202,793
0.197,2735
-0.487,10927
0.0649,2891
0.026,4486
-0.203,8536
-0.0607,7498
0.0659,4185
-0.000435,5456
-0.255,9797
-0.182,10640
0.0585,3980
0.121,2449
0.196,2894
0.129,3691
0.165,2858
-0.261,9664
-0.211,10255
-0.168,8534
0.291,3211
-0.106,7211
-0.185,8954
-0.246,10624
-0.0475,6111
0.0998,2211
-0.218,10680
0.115,3610
0.093,1319
0.0571,2279
0.191,2347
-0.147,7736
0.00915,5039
-0.489,8999
-0.16,10384
0.0524,3344
0.0959,3490
0.142,2083
0.319,1735
-0.0133,5389
0.157,1471
-0.092,8068
0.0668,3463
-0.0213,5885
-0.196,7845
0.0694,3827
-0.0436,6507
-0.139,9835
-0.02,5687
0.623,129
-0.434,9863
-0.159,8622
-0.0746,8517
0.229,811
-0.0808,8435
0.095,3697
-0.116,6618
-0.22,9990
0.0241,4453
0.000273,5418
0.0769,3851
0.129,3818
-0.155,8538
-0.144,7305
-0.0982,7043
0.0614,3836
-0.0932,7340
0.439,89
-0.0803,6574
0.134,2809
-0.0257,6202
0.0465,4430
0.204,1905
0.217,349
-0.0815,6229
0.195,2666
0.33,20
-0.375,10896
0.125,2723
0.27,1336
0.036,4314
0.245,2068
-0.0855,7492
0.255,937
-0.0587,6988
0.629,378
-1.02,9940
0.163,2889
-0.116,8448
0.116,3030
0.0356,4450
-0.128,8368
0.225,1357
0.0207,4615
-0.0019,5242
0.0391,4257
0.175,1376
-0.198,6353
0.069,3877
0.197,1930
-0.0632,6794
-0.116,10079
-0.0279,5618
-0.0697,6416
0.21,548
0.181,2407
0.224,65
-0.0282,6903
0.00157,5288
0.252,1046
0.258,1104
-0.29,9864
-0.0509,6578
0.0767,3617
-0.159,8403
-0.082,6527
-0.252,8681
-0.332,9348
-0.107,8018
-0.16,10267
0.279,1682
0.181,1985
0.00382,5183
0.422,2038
0.221,524
0.0109,4962
0.0552,4072
-0.0105,5701
0.0389,4426
-0.0375,5909
0.0931,3078
0.0728,2934
0.0179,4945
-0.129,8941
0.404,1102
-0.207,10023
0.162,1477
0.257,316
-0.00976,5434
-0.424,10652
-0.125,7069
-0.0987,8034
0.07,3083
0.0913,1738
0.00685,5185
0.55,328
-0.539,9367
-0.811,10251
-0.223,9802
-0.119,9621
-0.0379,5871
0.0259,4754
-0.0727,7309
0.396,1491
-0.105,8654
-0.0818,8300
0.029,4676
-0.309,10011
0.407,187
0.426,938
0.0369,3782
0.0148,4960
-0.2,7186
0.121,2596
0.147,2343
-0.201,8513
0.152,1493
0.164,1163
-0.0435,6642
0.077,3637
0.112,3595
0.233,1212
-0.02,6520
0.781,757
-0.151,10114
-0.0268,6036
-0.53,10842
0.236,2311
-0.0442,6950
0.0206,4713
0.303,1149
-0.177,9200
0.0814,3604
-0.101,5650
-0.291,9933
-0.0335,6068
-0.104,6455
-0.0831,7115
0.35,1017
-0.00991,5870
-0.0112,5818
0.162,2463
-0.222,10748
0.0636,3662
-0.386,10955
-0.115,6692
-0.189,9960
0.462,1010
0.236,1232
0.312,875
0.0645,3527
0.101,3006
0.214,539
-0.342,10257
0.17,2101
-0.139,6750
0.0275,4228
0.0603,4065
-0.0225,6277
0.267,1214
0.102,3225
-0.0908,6877
0.129,2796
-0.402,11003
0.00874,4871
-0.2,9116
-0.438,10855
-0.0317,6016
-0.0169,6031
0.273,826
-0.0532,7963
-0.0319,5709
0.198,1412
0.12,2491
-0.0191,5904
0.0573,3334
0.157,961
-0.0253,5849
0.0511,4242
0.0576,4451
-0.107,8432
0.212,952
0.0698,3353
-0.0955,7414
-0.291,10645
0.0396,4499
-0.13,6584
-0.0508,6603
-0.191,10685
0.0725,2965
0.0892,3229
0.338,2290
0.021,4792
-0.0487,7686
-0.035,7186
-0.103,7657
0.0851,3390
-0.087,5727
0.0472,3863
-0.0119,5694
-0.0528,7303
-0.112,7585
0.439,514
-0.0457,6906
0.0335,3964
-0.199,10833
-0.175,9718
0.352,169
0.202,816
-0.211,10110
-0.21,10305
0.0541,4097
0.337,175
-0.0683,6111
-0.0398,6229
0.481,475
-0.421,10606
0.189,1726
0.0124,4876
0.0742,3788
-0.671,10749
-0.106,5374
-0.0417,6250
0.0484,4070
0.213,2260
-0.0786,5966
0.16,318
0.206,917
-0.0882,7546
0.0179,4656
-0.141,9767
-0.106,7836
0.0284,4421
0.0847,3620
0.256,700
0.104,2604
-0.368,10756
0.0899,3172
-0.188,9218
-0.536,10902
-0.279,9561
0.235,1927
0.0724,3601
0.228,922
-0.231,7247
-0.409,10098
-0.0495,6343
0.0269,4520
0.216,726
0.0743,3912
-0.166,10450
0.0968,3834
0.0953,1799
0.0836,3008
0.0606,2570
0.73,165
-0.1,7185
-0.132,10412
-0.0977,7131
0.0446,3809
-0.0872,7480
0.413,516
-0.0247,5986
-0.218,8130
-0.0667,5929
0.194,1246
-0.144,9860
-0.118,8701
-0.00171,5518
0.0249,4477
-0.113,8772
-0.283,9020
0.134,1940
0.0514,3861
-0.26,10210
-0.204,9235
0.0992,2968
0.203,1948
-0.0476,6302
-0.352,10233
-0.281,7014
-0.0623,7867
-0.195,9556
-0.215,9423
0.183,1083
-0.121,9587
-0.0588,6888
0.145,2311
-0.45,11011
-0.157,8536
-0.181,8432
0.137,1969
0.165,1948
0.191,1351
-0.17,8163
0.116,2381
-0.0253,6424
-0.293,10934
-0.107,8095
-0.0826,7228
-0.473,10833
0.307,1029
-0.0298,6260
-0.0989,8771
0.0865,2507
-0.537,9974
-0.114,7592
-0.082,6984
0.23,537
-0.0547,6974
0.294,1079
-0.214,9625
0.0952,2969
-0.324,9928
0.0708,3085
-0.199,10279
0.0874,2154
-0.15,9747
0.41,442
-0.115,7594
0.404,674
-0.124,7806
0.0532,3100
0.13,2965
0.171,1362
-0.145,9498
-0.0387,5631
0.0399,3555
0.0315,4615
0.192,2883
-0.242,8825
0.073,3871
0.138,1353
-0.0777,9274
0.0341,4204
-0.0133,5614
-0.149,7794
-0.196,10171
-0.00311,5554
0.408,511
0.00445,5256
0.108,4068
-0.479,9915
-0.355,8003
-0.144,7081
0.0496,4038
-0.232,10609
0.124,3062
-0.0876,6878
-0.674,8084
-0.872,11024
0.219,862
-0.123,10706
-0.0754,6755
-0.29,10630
-0.357,11011
0.00486,5106
0.154,1811
0.101,2507
-0.169,7823
-0.0423,5864
-0.213,7945
-0.127,9424
0.125,2569
-0.0522,6862
0.144,2760
0.159,3393
0.0904,3793
0.00625,5159
0.339,960
0.0215,4478
-0.0614,4723
0.576,127
-0.114,7563
-0.0793,7290
-0.08,7803
0.0031,5082
0.279,654
0.131,2182
0.318,1319
-0.243,7172
-0.214,9998
0.0859,1088
0.271,472
-0.17,8185
0.035,4475
0.0212,5070
0.225,388
-0.126,8871
-0.0272,5500
0.128,3378
-0.111,8214
-0.3,9911
0.251,948
0.0322,4273
8.88e-05,5269
0.722,23
0.0493,3823
0.207,2944
-0.0405,6812
0.0478,3518
0.192,2352
0.0278,4497
0.234,1951
-0.292,10450
0.224,1665
-0.187,8624
0.203,1284
-0.0105,5344
-0.0186,5571
-0.168,6774
0.223,2038
-0.0807,7936
-0.00331,5234
-0.106,7906
0.274,988
-0.174,8444
-0.0588,7443
-0.092,8737
0.17,2354
-0.163,8225
-0.521,9891
-0.132,7543
-0.124,8989
-0.00363,5549
-0.272,10565
-0.00863,5303
0.06,4170
-0.239,9574
0.0229,4836
-0.156,7317
0.105,2361
-0.219,9458
0.0535,4210
-0.0371,6624
-0.0488,7449
0.108,2465
0.263,875
-0.261,10550
-0.112,7827
-0.0886,8070
-0.14,8366
-0.127,9661
-0.123,7346
-0.0484,6398
-0.095,7086
0.202,2063
-0.0983,9223
0.0166,4800
0.0189,5101
-0.0685,6677
-0.202,6956
0.0513,4318
-0.0841,7548
-0.0675,7534
0.153,2764
0.0912,3299
-0.0564,5692
-0.0812,7012
0.0342,3510
0.00807,4923
-0.218,9256
-0.0998,7775
-0.144,8984
-0.221,9774
-0.214,9831
0.06,3449
0.0576,3451
0.542,1367
0.418,1237
-0.253,9740
0.288,316
-0.133,8736
0.18,1155
0.343,582
0.0773,3258
-0.269,10094
0.284,212
-0.0265,6089
-0.259,10417
-0.226,10067
-0.103,7660
-0.145,7738
0.0405,3346
0.131,2663
0.253,1744
-0.0465,5945
-0.353,10129
-0.316,8551
-0.14,9100
-0.012,5511
-0.149,8663
-0.156,8930
-0.122,7661
0.00132,5216
-0.00165,5458
0.0396,4063
0.044,4240
0.0345,4288
-0.176,8551
-0.135,8431
-0.00863,5855
0.186,1203
0.03,4953
0.172,1657
-0.0854,7745
0.365,458
-0.252,9572
-0.0257,6716
-0.0435,6491
-0.2,8802
0.000936,5046
-0.0457,5833
-0.00293,5347
-0.00722,5788
-0.414,10965
0.0958,3322
-0.47,10382
0.0526,4296
0.111,2492
0.000753,5503
-0.183,10408
0.0243,4764
-0.381,10867
0.226,1419
0.107,1756
0.00654,5236
-0.184,9642
-0.424,10679
-0.0223,5777
0.0899,3313
-0.0573,6976
0.181,1829
-0.243,9935
-0.146,6872
-0.0597,6920
0.999,443
0.358,690
0.273,646
0.0884,3489
-0.148,8682
0.286,1643
0.00525,5194
0.104,2843
0.064,2741
0.0532,4097
0.0941,3209
0.21,1561
0.127,3699
-0.0163,5693
-0.0155,5480
-0.213,8076
-0.101,6594
0.135,2354
-0.0179,5815
0.0521,4269
0.311,446
0.284,614
0.0524,4224
0.216,1510
-0.19,8009
-0.0265,6266
-0.161,9844
0.224,2014
-0.0739,7849
-0.276,8580
-0.0477,5651
-0.00495,5376
-0.127,10661
-0.0388,5857
-0.0153,5568
0.148,1218
-0.133,9929
0.0269,4223
-0.00849,5752
0.0521,4101
-0.315,10683
-0.0657,6197
0.000303,5465
0.0499,3254
0.0151,4707
-0.63,10998
-0.189,7585
-0.0635,6140
0.0412,4428
-0.0537,8104
0.0307,4519
0.147,2126
-0.293,9753
-0.0855,7088
-0.0024,5762
-0.0303,6901
-0.0965,8924
-0.0527,6275
0.261,749
-0.526,10769
-0.308,10214
-0.0978,7095
0.266,39
-0.223,8470
-0.0538,6629
-0.668,10575
-0.142,9763
0.0529,3194
-0.00468,5146
0.198,1724
-0.101,7054
0.113,2853
0.105,2476
0.155,307
-0.172,10409
0.232,1857
-0.202,5830
-0.266,8499
-0.377,10695
0.0968,2948
-0.0749,7870
0.39,303
-0.399,10448
0.206,1150
-0.0199,5449
0.0571,2874
-0.115,7831
-0.189,9472
-0.142,8258
-0.0441,6214
0.0958,2645
-0.311,7735
0.02,4832
-0.0165,5480
0.222,908
-0.0704,6383
0.223,2111
0.0356,3470
0.0755,3462
-0.209,8212
-0.279,7831
-0.234,9202
0.0784,4076
0.182,834
0.125,1267
1.09,1199
-0.149,4663
-0.191,6532
1.28,86
1.2,880
-0.0963,8694
-0.344,10549
-0.128,7754
-0.548,10840
0.146,2897
0.0308,4339
-0.264,10331
1.04,1235
-0.497,10062
0.586,1979
0.0679,4302
-0.0528,7611
-0.0338,6758
0.578,2267
-0.41,8049
-0.158,7387
-0.428,10733
-0.0962,6978
0.0302,4607
0.0913,3848
-0.114,7071
0.148,1063
-0.134,7855
-0.089,7456
-0.184,8835
-0.948,10604
-0.555,10378
0.377,794
0.0874,3969
-0.168,9468
-0.0904,7776
-0.0741,5770
0.14,3111
0.192,1796
-0.303,7619
-0.196,9240
-0.144,9241
0.626,563
-0.0393,6212
0.117,3434
0.475,1630
-0.00202,5535
0.106,2311
0.221,1728
-0.0521,7233
0.238,2113
0.201,1616
0.00257,5228
-0.0443,6942
-0.407,10765
0.519,207
0.0856,3191
-0.108,7036
0.0196,4749
0.183,2857
-0.029,6309
-0.0586,7547
0.118,912
0.0741,3869
-0.0267,6067
0.197,1699
0.252,489
0.0118,4783
-0.348,10969
-0.128,6140
-0.157,6190
-0.271,8317
-0.18,7215
0.454,784
-0.0439,6425
-0.282,10446
-0.0634,5978
-0.0723,7400
0.0826,3396
-0.0938,9152
-0.123,7999
0.122,2869
-0.208,10730
0.243,2192
-0.296,10932
-0.368,10978
-0.354,9743
-0.108,8018
0.114,2972
-0.103,6873
0.0729,2844
0.043,3314
0.0143,4742
-0.115,7928
-0.0867,8239
-0.273,10597
-0.127,8924
-0.0335,6022
-0.0583,7969
-0.0449,6180
0.234,523
0.148,2572
-0.000297,5431
-0.209,10147
0.0522,3711
-0.144,9222
0.158,2838
0.194,1540
0.00127,5375
0.00454,5115
-0.000613,5460
-0.393,10673
0.24,337
0.108,2334
0.117,3168
-0.0903,7864
0.172,2080
-0.111,6999
0.0796,3505
0.151,2308
-0.202,10177
0.429,946
0.0214,4581
-0.246,8462
-0.111,7068
-0.412,10802
0.0477,3282
-0.0537,7208
0.0151,4865
0.125,2872
-0.261,9764
-0.0251,5519
-0.214,10019
0.198,984
-0.0548,7772
-0.0229,5961
0.1,2862
0.019,4697
-0.0665,6598
-0.271,10445
-0.254,9965
-0.213,8612
-0.0731,6649
0.331,2165
0.0222,4520
-0.00163,5489
0.0253,4452
-0.0405,6411
0.00664,4896
-0.0851,8708
-0.0627,8621
0.185,1829
-0.265,9860
-0.149,7361
-0.239,10057
0.0713,3589
-0.188,9500
-0.0208,6101
0.192,1239
0.175,2350
0.299,1975
-0.0878,5903
0.176,967
-0.176,10773
-0.332,9402
0.366,1631
0.172,3317
0.0609,4471
0.0518,4211
-0.234,8773
-0.174,8557
0.184,1470
0.269,1781
-0.253,10973
0.143,1510
0.0364,4455
0.00271,5266
-0.0354,6838
-0.644,10202
-0.0156,5235
0.0194,4344
-0.334,10350
0.0631,3149
0.0569,3979
-0.137,7758
0.173,2101
-0.0562,7749
-0.0431,6476
0.0311,4606
0.259,1181
0.244,849
0.0804,3058
-0.0692,7510
-0.0573,7852
-0.1,7288
-0.614,10999
0.0794,4157
-0.0437,6119
-0.0103,5641
-0.0885,6593
-0.217,10253
0.151,964
-0.0891,6463
0.243,3094
0.0518,3596
-0.103,9649
-0.272,9784
-0.331,10660
-0.114,9843
-0.281,10453
-0.0496,7322
-0.022,6158
-0.0596,5523
-0.0156,5704
-0.233,9508
0.0574,3960
0.08,3695
-0.00386,5537
-0.00697,5408
0.294,329
-0.00826,5461
0.308,1355
-0.0533,6718
0.134,1704
0.522,50
-0.154,9642
0.374,467
0.189,2251
-0.124,9421
-0.00974,5813
-0.0644,7345
0.195,2279
0.342,1316
-0.119,8799
-0.000102,5326
0.0278,4901
0.156,2556
0.0316,4053
-0.262,10106
0.267,2019
0.0474,4339
-0.255,10513
-0.0222,5501
-0.0324,6256
-0.122,7026
0.329,461
0.203,1537
-0.313,10461
0.246,882
-0.0661,6287
-0.136,6632
0.229,2265
-0.0764,8335
0.153,1649
-0.354,10642
0.101,3685
-0.503,7994
-0.0633,7920
0.0787,2989
-0.213,10206
-0.0506,6443
-0.0153,5512
-0.0927,8303
-0.0571,6225
0.0876,2928
-0.277,10316
-0.277,9051
-0.181,9182
-0.206,10791
-0.24,10462
-0.0108,5401
0.000828,5601
-0.012,5935
-0.0531,7064
0.291,945
0.133,2693
0.217,343
0.211,1755
0.146,2951
0.452,443
0.233,1545
-0.206,7780
-0.0908,6850
0.0936,1388
0.158,2241
0.179,1267
-0.0529,6570
-0.423,10996
-0.261,10180
-0.0181,6472
-0.351,7363
0.0695,4120
-0.746,10292
0.0656,4055
0.379,842
-0.886,10042
0.19,1555
0.0253,4867
0.401,224
-0.0347,6637
-0.114,8066
-0.305,10145
-0.229,9912
0.0828,3582
-0.00615,5238
0.00767,4864
0.0448,4182
0.032,4608
-0.365,9865
-0.0153,5598
0.368,112
0.134,3089
-0.0765,7125
-0.0558,7496
-0.112,8576
-0.206,9001
-0.0521,7800
0.124,1060
-0.101,8412
0.157,622
-0.0794,7421
-0.698,10071
0.205,554
0.192,1221
-0.0735,6694
0.0456,4188
-0.28,9551
-0.133,7000
-0.128,8012
-0.127,9769
0.028,4914
-0.0685,6198
0.176,1802
0.202,1205
-0.0354,6067
0.0917,3773
-0.243,9997
-0.341,9871
0.101,2832
-0.108,9814
0.0538,3406
0.154,2849
0.0654,4143
0.555,291
0.0155,4729
-0.183,10283
0.439,409
0.0254,4663
-0.0855,7648
-0.379,10063
-0.173,9901
0.0601,3755
0.523,211
-0.291,10660
0.374,104
-0.368,10780
-0.000331,5422
0.136,1172
-0.174,10036
-0.0755,7464
-0.0549,6122
-0.132,7589
0.0343,4389
0.0423,3352
0.496,215
0.0147,4507
0.202,2049
0.162,2400
0.0897,2387
-0.15,8089
0.182,1392
0.331,628
-0.196,10111
0.0977,3367
0.021,4660
-0.085,8126
0.202,586
-0.0268,6044
0.187,2626
-0.116,8565
0.0523,2774
-0.0294,6337
-0.253,10081
-0.176,8067
-0.0235,5756
-0.00564,5653
0.0518,3747
0.138,954
-0.0898,6548
-0.368,10785
-0.181,8316
0.398,942
-0.0591,7538
-0.221,10445
-0.335,10312
0.378,426
-0.0896,7990
0.275,220
-0.126,8427
0.13,2338
-0.0131,5650
-0.101,7742
-0.0455,6197
-0.13,10514
-0.117,8035
0.14,2093
-0.00134,5087
0.397,1158
0.039,4894
-0.00471,5361
-0.011,6022
-0.106,7139
-0.105,6817
-0.263,9024
1.75,18
0.104,2577
-0.112,8786
-0.136,8875
-0.253,9720
-0.36,10582
0.267,2115
0.132,1095
-0.139,10172
-0.561,9419
-0.145,7483
0.0821,3474
-0.0158,5735
-0.0776,8742
0.0534,4081
-0.0581,6561
-0.197,8803
-0.123,9072
0.214,2647
0.0223,4639
-0.166,9947
-0.148,10132
-0.0293,6109
0.0707,3470
0.19,2231
-0.0536,7572
-0.147,10320
0.122,1846
-0.128,7605
-0.0193,5856
-0.152,7384
0.134,3161
-0.326,10312
0.322,1082
0.0638,3447
0.155,2395
0.00525,5179
-0.287,10619
0.0708,2401
-0.0711,8260
-0.0376,6561
0.0329,4607
0.278,1116
-0.0646,6337
-0.0437,7292
0.106,2091
-0.0859,7474
-0.181,10293
-0.146,8430
0.226,993
0.00811,5067
-0.511,10547
0.14,3723
0.00631,5091
0.693,732
0.19,1952
0.0529,3306
-0.0484,6606
-0.158,8156
0.638,473
-0.238,8490
0.0917,2770
0.0795,3249
0.0106,4915
-0.278,9240
0.147,2352
0.0674,4035
-0.0184,6259
0.0985,1825
0.00719,5131
-0.189,10347
-0.561,10349
-0.263,8896
-0.131,9212
0.22,2096
0.108,3284
0.486,1091
-0.0462,6058
-0.0452,6762
0.123,1721
0.0849,4083
-0.071,7555
0.126,1931
0.113,3514
-0.032,5980
-0.172,9380
-0.0863,7614
-0.183,10103
-0.567,10079
0.184,2592
0.164,1465
0.0532,4082
0.107,956
-0.365,10198
-0.0333,6286
0.573,29
0.29,88
-0.0161,5871
-0.0936,8567
0.0745,3195
-0.083,8606
-0.318,10080
-0.148,8803
0.0419,4011
-0.0604,9218
0.448,777
-0.0657,7062
-0.156,9012
-0.372,10625
-0.0669,6784
-0.0229,6109
0.0397,3879
0.221,2039
0.249,895
-0.459,11013
0.0797,2788
0.0609,3469
-0.0486,6540
0.548,291
-0.0749,7892
0.175,1857
0.0966,3735
0.0844,2638
0.012,4915
-0.172,9345
0.00542,4991
0.332,1844
0.174,1455
0.00743,4964
0.085,1970
-0.0541,6785
-0.101,7734
-0.0572,6883
0.0046,5201
-0.278,10207
-0.0865,7543
-0.759,10429
-0.0181,5523
0.126,1952
0.0372,3961
-0.000796,5358
-0.196,10521
-0.193,10330
0.0492,4201
0.0489,4116
0.0572,2532
0.175,1293
-0.0115,5397
0.236,1072
-0.12,7105
-0.0706,6874
0.00836,4945
0.00716,5076
0.148,2097
-0.143,6997
-0.148,7884
0.025,4434
-0.00578,5392
0.102,1584
0.108,2336
-0.174,9349
-0.166,8507
-0.195,8785
0.0384,4148
0.0163,5096
0.0794,3661
0.0128,4962
0.0677,4038
-0.141,9473
-0.0505,7160
-0.181,9694
0.181,1379
0.0714,3279
-0.112,8136
-0.173,8523
0.0657,2982
-0.103,10541
0.114,2765
0.0921,3072
-0.309,8719
-0.168,8531
-0.274,9782
-0.0375,7477
-0.0193,5726
-0.0287,6461
0.226,739
0.0442,3089
-0.285,10705
0.0271,4173
-0.0619,6908
0.135,1656
0.221,2717
-0.236,9122
-0.0164,5846
0.133,2323
-0.0646,6322
-0.0663,7550
-0.371,8815
0.116,2662
0.119,2451
0.168,2401
-0.195,8614
-0.611,11032
-0.0303,6058
0.399,707
0.241,1354
-0.068,7838
-0.189,9967
0.896,593
0.0463,4237
0.129,1557
-0.292,10793
-0.0612,8152
-0.249,10446
-0.0666,7220
-0.0579,6246
1.2,843
-0.146,9590
-0.0155,6196
0.258,629
0.222,2412
0.428,281
-0.0639,6182
0.0674,3291
-0.0962,7526
0.000597,5381
-0.153,8612
-0.0424,5680
-0.178,8117
0.129,189
0.271,101
-0.157,9084
0.163,2638
-0.289,10553
0.459,833
0.0277,4243
-0.000472,5279
0.0198,4732
-0.037,6448
-0.00822,5193
-0.158,8413
0.395,311
0.328,563
0.0658,4185
0.0747,3606
-0.0138,5751
0.2,482
-0.0801,7595
-0.0735,8189
-0.189,10475
0.0323,4222
-0.113,8496
-0.23,9410
0.0918,2949
0.156,1357
0.288,485
0.091,2149
0.107,3095
0.025,4761
0.0587,1655
0.00545,5302
-0.392,10459
0.404,290
-0.147,9357
0.344,1253
0.0672,3335
-0.0563,6863
-0.351,10905
0.282,1323
0.0782,3636
0.212,1123
-0.0313,6335
-0.11,9566
-0.237,10077
1.25,84
-0.00685,5386
0.112,3292
-0.284,9830
-0.0243,6638
0.0703,2379
0.0534,3801
0.222,1277
-0.547,7628
0.128,1061
-0.423,10925
-0.0924,7419
-0.0676,6752
0.119,2887
-0.312,9847
0.244,616
-0.124,10651
-0.113,8704
-0.11,7527
-0.329,10905
0.303,813
-0.0225,6092
-0.185,9466
-0.303,10482
0.29,1383
0.17,1680
0.0653,3177
0.25,893
0.118,2296
0.185,1775
0.166,2099
0.725,491
-0.029,6436
0.354,1324
-0.1,6359
-0.113,10477
-0.0228,6494
-0.294,10752
-0.236,9545
0.151,1668
-0.28,8169
-0.0666,7316
0.213,952
0.206,834
-0.27,10296
-0.0416,6547
0.25,2228
-0.169,10129
-0.15,10012
-0.326,10293
-0.0156,5701
-0.0655,6880
0.263,2071
-0.0193,5674
0.0627,2745
0.317,1603
-0.027,6331
-0.197,9695
0.276,1772
-0.0524,9435
-0.0445,6518
-0.162,9105
0.0177,4808
-0.242,10859
-0.0771,7634
0.177,1665
0.047,3550
-0.0281,5633
-0.027,6347
0.115,3130
0.219,2100
0.0973,2818
0.0068,4998
0.00324,5496
0.276,2405
0.113,3337
-0.0853,7630
-0.0806,7039
-0.118,9113
0.000958,5202
0.115,3400
-0.196,8800
0.0984,1706
0.0657,3629
0.0432,4107
0.387,649
0.0894,3562
0.194,1011
0.0377,4431
-0.139,9872
-0.241,10222
-0.124,7874
0.356,164
-0.383,10626
-0.0315,5868
0.0808,2300
0.062,3534
-0.161,8641
-0.404,10662
-0.00828,5110
0.39,2230
0.305,343
0.0528,3596
-0.161,9706
-0.117,7305
0.0911,3321
-0.0287,6133
-0.0503,7019
-0.338,10915
-0.139,8112
0.000511,5151
-0.14,8968
-0.156,10062
0.0134,4957
-0.404,10458
-0.0211,5902
-0.106,7999
0.0292,4753
0.144,1400
-0.131,10259
-0.0077,5613
0.295,1419
-0.171,9216
0.0645,3899
0.0161,4757
-0.207,10059
-0.17,9932
0.318,1657
-0.122,7806
-0.187,9026
-0.857,9302
-0.0774,7370
0.0889,1891
0.502,58
-0.132,8004
-0.0309,6398
-0.283,9595
-0.147,9989
-0.00742,5568
0.134,2397
0.013,5079
-0.184,9081
-0.0773,7776
-0.0725,9698
-0.0442,6938
0.273,1883
0.0177,4531
-0.206,8042
-0.18,10609
-0.18,10600
0.188,715
-0.143,8873
-0.0936,9557
0.253,1386
0.0707,2813
-0.106,8986
0.0848,3076
-0.323,9525
0.0958,3170
0.0437,4464
1.01,590
0.18,2545
-0.351,10365
0.336,315
0.059,4277
-0.111,6193
-0.152,9160
0.326,1286
-0.185,9384
-0.0231,5733
-0.0214,5944
0.00766,4874
0.338,329
-0.0704,7071
0.394,94
0.252,2762
-0.0854,6249
-0.265,9057
-0.223,9057
-0.152,9549
-0.364,10205
0.271,1510
0.259,62
0.0871,2926
0.616,358
-0.0945,10213
-0.0725,7990
-0.0548,6305
0.0219,4727
-0.168,8536
-0.196,8064
0.0437,4157
-0.00153,5463
0.305,991
-1.7e-05,4645
0.0811,4108
0.641,37
0.154,1268
0.106,2762
-0.0529,6698
0.371,347
-0.119,5836
-0.00707,5472
-0.0268,6009
-0.247,9669
-0.0225,5860
0.129,2310
0.141,1693
-0.0811,7770
0.103,2187
-0.183,9113
0.291,822
0.132,2637
-0.145,9267
0.534,667
0.291,677
0.123,2852
-0.0727,6875
0.0692,3431
-0.253,9487
-0.0311,5948
-0.0897,9367
-0.156,9964
0.167,2040
-0.0211,5675
-0.0338,5549
0.0993,2134
-0.0919,8189
-0.00664,5960
-0.333,10130
0.102,3804
0.431,1107
0.0398,4675
0.0175,4599
-0.298,10741
-0.133,9647
0.127,2402
-0.153,10281
0.0732,3549
-0.0796,8777
-0.0853,7450
-0.0122,5514
0.323,2180
-0.581,10434
0.333,951
0.0464,4270
-0.0752,8201
0.164,1498
0.112,3228
-0.313,10693
0.575,771
0.0954,3095
-0.0139,6402
-0.171,10221
-0.0663,7653
0.104,1848
-0.442,10446
0.102,2307
-0.0245,6620
-0.432,9317
0.0864,4109
-0.384,9101
-0.286,8261
-0.0239,5788
-0.104,7805
-0.252,10206
-0.159,9399
-0.336,10010
-0.0302,6471
-0.147,10276
-0.209,10228
0.114,3188
0.0793,2951
-0.0941,8441
-0.0102,4389
-0.0426,6338
0.208,733
0.0658,3070
-0.144,10335
0.00705,4868
-0.129,8768
-0.0932,7496
0.206,776
0.0639,3955
-0.099,8031
0.339,715
-0.0314,6625
0.00572,4996
0.124,1676
-0.142,9262
-0.0283,5454
0.0906,2808
0.344,852
0.0902,2143
-0.0678,7641
0.185,2380
0.232,555
0.137,1160
-0.2,8228
-0.0486,8037
-0.0287,6303
0.0381,4092
-0.514,10625
-0.277,8670
0.183,2603
0.0514,3408
0.21,1688
-0.284,9716
0.279,1813
-0.16,7730
-0.375,10879
-0.195,9765
-0.0908,8301
0.722,1501
-0.00073,5421
-0.0277,5885
-0.143,7157
-0.0897,8199
0.0297,4785
-0.164,8285
0.421,850
-0.194,7782
0.119,2998
0.183,1359
-0.216,10305
0.259,1299
-0.229,10463
0.343,1164
0.0983,2356
0.0423,3729
-0.107,9748
-0.112,8155
-0.197,9288
-0.00624,5497
0.119,2142
-0.196,10233
0.0695,3085
0.104,3326
-0.294,10174
-0.748,10663
0.267,1411
0.155,1405
0.061,2993
-0.0292,5620
0.133,1959
0.49,2209
0.0656,2443
0.125,1360
-0.132,9967
-0.163,8883
-0.124,8291
-0.119,5918
0.584,427
-0.0264,6300
-0.171,8798
0.389,1738
0.0228,4824
0.713,134
0.123,2199
0.0969,3547
-0.0327,6918
0.221,676
-0.605,10837
0.0921,2175
-0.0302,5887
-0.0205,5942
0.0254,4298
0.134,3470
-0.364,9722
0.361,2144
0.287,766
-0.138,9377
-0.0313,6155
-0.3,9691
-0.0445,6128
0.53,817
-0.136,9114
0.0765,2551
0.161,2266
0.0115,5048
-0.0703,7200
0.44,343
-0.108,8118
0.256,1220
0.0607,3101
-0.192,9923
-0.0638,6663
-0.13,7005
-0.334,9607
0.261,210
-0.188,9776
-0.169,9424
0.0916,2847
-0.104,7851
-0.0452,6587
0.0872,3020
-0.0876,9169
-0.046,6226
0.078,3917
-0.166,8768
-0.101,7096
0.053,4066
0.0807,2303
0.0927,2688
-0.07,8298
-0.156,6723
0.076,4240
-0.215,9745
-0.0505,6593
-0.0483,10929
-0.254,9928
-0.0583,6743
0.231,421
-0.85,10698
0.0678,3387
-0.249,10774
0.0833,3668
0.0592,4149
-0.0847,7722
0.428,631
0.0412,4044
-0.0665,7463
0.0446,4060
-0.13,7096
0.0896,3288
-1.1,10950
0.0505,4047
0.0228,4576
-0.163,9381
-0.18,9814
-0.0417,6771
0.173,2011
0.0169,4885
-0.0589,6965
-0.432,10302
-0.214,9361
0.109,3331
-0.274,8682
-0.0124,5846
0.198,912
0.0203,4498
-0.262,10203
0.363,1841
-0.274,10752
-0.148,9204
-0.0657,7255
0.0724,4211
0.168,1095
0.146,2591
0.0291,4510
0.15,2840
-0.125,8425
-0.253,9434
0.132,2224
0.111,3170
-0.326,10478
-0.0246,6548
0.0321,4180
0.153,2086
0.13,2496
-0.551,10374
0.065,3852
-0.0384,6420
0.036,4241
0.0897,3464
-0.378,10045
0.456,946
-0.329,10058
-0.0984,8088
0.228,1137
-0.347,9774
-0.317,10825
0.639,67
0.528,249
-0.0215,6058
-0.0675,7284
0.476,288
0.0459,4332
-0.0647,6771
0.394,362
-0.0713,6493
-0.0882,8390
-0.304,10113
-0.179,8797
-0.324,8661
-0.527,10859
-0.0805,7594
0.181,677
-0.075,7071
0.399,1126
-0.111,9491
-0.0954,6824
0.0852,2772
0.0506,2385
-0.00261,5695
-0.212,8361
0.109,3819
0.0686,3056
0.198,1366
0.109,1571
0.253,1440
-0.272,9515
0.747,898
0.23,1766
-0.0907,8272
0.19,2249
-0.185,9184
0.372,825
-0.189,9127
-0.629,10314
-0.0285,6073
0.119,2519
-0.182,8672
0.167,1706
0.0869,3698
-0.173,8382
-0.305,10917
0.0521,3664
0.333,575
-0.0128,5557
-0.202,10616
-0.195,9704
-0.213,9061
-0.136,9151
-0.0961,7967
0.102,2632
-0.0591,6968
0.133,3241
0.162,588
0.00284,5234
0.282,511
-0.019,5900
0.00151,4695
-0.243,10428
-0.122,8989
-0.0219,6057
-0.0319,5768
-0.133,9222
-0.249,10142
0.0706,1625
0.179,1663
-0.0767,7008
-0.0629,7599
0.0661,3968
0.0395,4275
0.0912,3134
0.0993,2607
-0.033,6425
0.232,1914
0.181,1455
0.328,858
0.452,1345
-0.073,8473
0.0808,3159
-0.156,8467
-0.0106,5836
-0.525,10111
-0.0814,8478
-0.144,8038
-0.137,9261
-0.0936,7349
0.0237,4620
0.486,692
0.285,2120
-0.145,8054
0.0204,4865
-0.146,7359
0.108,2308
0.28,2179
0.0459,4396
-0.0534,7620
0.0447,3573
0.0199,4501
0.0264,4815
0.186,685
-0.0916,7722
-0.0494,6884
-0.308,10887
0.0926,3776
-0.0221,5865
0.151,3235
-0.23,9826
-0.0922,8603
0.0309,4332
-0.0103,5628
-0.206,8396
0.0257,5047
-0.138,8498
-0.201,10177
0.0707,4112
-0.0112,5498
-0.479,9688
0.408,2370
-0.0278,5941
0.481,177
0.0362,4400
-0.314,9082
0.266,2459
-0.00751,5606
-0.0569,7509
0.056,3856
0.00117,5007
0.0865,3533
0.0364,4463
0.0462,4184
-0.0589,7155
-0.0939,8959
-0.0422,6039
-0.343,10851
-0.278,10127
-0.298,9319
-0.133,9344
-0.0309,6801
0.2,522
0.105,3211
-0.474,10772
-0.0086,5401
-0.0809,7299
0.0796,1541
0.00769,4705
0.241,1561
0.416,728
-0.0719,7320
-0.0337,6577
-0.011,5712
0.02,4666
0.513,300
-0.0132,5559
0.143,2655
-0.0581,8335
-0.0401,6794
0.223,1469
0.0928,3258
0.115,2270
0.13,2771
-0.0123,5928
-0.00731,5515
0.0552,3272
0.233,1566
0.0638,4109
-0.0992,6911
-0.11,9128
-0.0589,8208
0.153,1748
0.155,2976
0.0538,4161
0.102,3456
0.045,3277
-0.00222,5530
-0.135,8774
0.000937,5124
0.0736,3570
0.057,4316
-0.0384,6693
-0.0435,6420
0.221,1375
-0.00578,5427
-0.105,7969
-0.156,8621
-0.113,8836
-0.117,9000
0.511,529
-0.121,8388
-0.0161,5459
0.156,2348
-0.166,9819
-0.0206,6900
0.0653,3695
0.134,3056
-0.335,10630
-0.268,10169
-0.062,7891
-0.0852,7058
-0.0283,6354
0.0282,4619
0.0358,3744
-0.174,8781
0.0853,2655
0.0424,4045
-0.186,9506
-0.00421,5517
0.114,3358
0.361,2484
-0.157,10526
0.213,869
-0.099,7059
0.125,3476
0.0406,4520
-0.704,10819
0.159,2278
0.131,1319
-0.247,9776
-0.242,10460
0.401,2200
-0.613,10508
0.0679,3873
-0.00702,5639
-0.0498,6671
-0.0676,6940
0.245,1695
0.0587,3864
0.0928,2537
-0.185,8820
-0.159,8513
-0.451,10289
-0.111,6834
0.189,2398
-0.0584,7313
0.1,3199
0.41,177
0.381,504
-0.189,9374
-0.057,6932
0.0643,2151
-0.318,10936
0.225,1697
0.0702,4003
-0.225,10417
-0.282,6699
0.144,1443
0.296,745
-0.11,8803
0.0389,4424
0.0137,5034
-0.00572,5775
-0.147,9552
0.155,2723
0.175,3002
0.116,2729
-0.0606,6299
0.00745,4951
-0.0396,6351
-0.138,8502
-0.0163,5807
0.363,551
-0.0105,5197
-0.235,8022
-0.11,8595
0.456,353
0.355,714
0.227,2341
0.594,1560
-0.105,9211
0.285,281
0.0235,4729
0.105,2427
0.192,1795
2.13,388
0.083,2972
-0.0548,6826
-0.165,9131
0.0708,3734
0.0823,2216
-0.166,9574
0.216,1213
-0.0173,5624
-0.0729,6302
-0.106,8519
0.0394,4010
-0.111,8417
-0.0351,6089
-0.187,9839
0.0525,3418
-0.115,8236
0.0841,3502
-0.205,9487
-0.107,6728
0.0659,2663
-0.111,8995
-0.0373,6519
0.162,2188
-0.183,8735
0.154,2649
-0.033,6466
0.067,3266
-0.126,8859
0.236,931
0.262,1433
0.0922,3404
0.208,356
-0.0175,6097
0.719,28
-0.236,9492
0.0115,5216
-0.0341,6428
-0.0434,7453
-0.026,6340
0.115,2807
-0.249,7456
-0.39,10465
0.0235,4940
-0.00629,5804
-0.0716,8758
-0.259,8763
-0.0735,7673
-0.182,6575
-0.146,8545
-0.281,10654
0.0095,4844
-0.154,9878
-0.112,8449
-0.0625,8675
0.288,1115
-0.0333,5982
-0.163,8399
-0.257,10666
0.119,3309
0.0899,3586
0.0727,3807
-0.0216,6306
-0.122,8726
0.044,4111
-0.0883,7754
0.363,718
0.161,2479
0.0327,4751
-0.0305,6220
-0.261,9449
-0.147,6427
-0.161,7996
0.0224,4496
-0.046,7219
-0.225,9675
0.03,4630
0.168,2654
0.119,3572
-0.0111,5339
-0.0821,9264
-0.0312,6621
-0.0229,5671
-0.185,9385
-0.448,10381
0.0432,4359
-0.0302,6252
-0.173,7653
0.0683,3494
-0.233,10424
-0.115,8858
-0.0499,5598
0.096,2954
0.208,681
-0.0394,6478
-0.0802,6404
-0.065,7051
0.038,4549
-0.0363,6087
-0.055,6598
-0.0556,6666
0.0457,4158
-0.0512,6519
-0.162,8930
-0.147,8882
0.0714,1185
-0.594,10440
0.252,713
-0.416,10963
0.000644,5459
-0.165,9355
-0.131,9940
-0.359,10747
0.181,3439
0.317,455
-0.381,10134
0.124,3094
-0.266,9786
0.182,2871
0.301,1212
-0.553,11004
-0.137,7190
-0.382,10396
0.103,1935
0.472,134
0.38,58
-0.00887,5515
-0.245,10233
-0.146,9861
-0.0377,7810
-0.0816,7784
0.108,2175
1.09,226
0.00699,5050
0.206,1535
0.0235,4767
0.818,21
-0.246,9445
-0.265,8341
-0.155,7097
0.0394,3659
-0.124,8614
0.0127,5260
0.0866,3750
-0.312,10471
0.0339,4568
-0.0538,7726
-0.0046,5611
-0.0475,5829
-0.0705,6672
-0.364,10659
-0.719,10936
-0.144,9818
0.00235,5164
0.434,1173
-0.134,7872
-0.0831,6620
0.0457,4280
-0.162,9246
0.0459,3640
-0.102,7985
-0.12,7327
0.276,1271
-0.0952,8513
-0.032,6876
0.243,1139
0.101,1996
-0.0813,7443
0.259,1289
0.0798,4042
0.153,1240
0.015,4713
-0.0777,7342
0.0808,3272
-0.234,8688
-0.0981,8054
-0.0564,7213
-0.00778,5571
0.188,3365
0.307,635
0.235,695
0.207,1689
-0.0687,7909
0.184,2150
-0.0333,6188
0.316,957
-0.106,7916
-0.165,6638
0.0448,3049
0.173,907
0.0511,4226
0.0847,2310
-0.387,6364
0.834,665
0.0441,3766
0.228,760
0.266,389
-0.12,7206
-0.204,7946
-0.162,7063
-0.0567,7055
0.102,2311
-0.137,7174
-0.164,7844
0.719,356
-0.575,10935
0.119,3129
0.328,137
-0.0616,6025
-0.274,10546
-0.00426,5350
0.237,1958
-0.0945,9553
-0.218,9477
0.453,461
0.0458,4283
0.127,3227
-0.0647,7135
0.142,361
-0.00681,5417
-0.199,8122
-0.16,9202
-0.253,8973
-0.26,9590
0.222,2014
0.0497,3136
0.229,2117
-0.0475,6571
-0.243,10412
-0.0808,7591
-0.0861,7692
-0.064,9203
0.261,711
-0.25,10643
0.000809,5348
-0.248,9971
-0.0608,7930
-0.102,7254
0.000938,5476
0.261,335
0.0593,3785
0.172,2026
0.0997,2790
0.149,1571
0.0513,3565
-0.208,9752
0.217,1027
0.13,3054
-0.222,9940
-0.285,10974
0.152,1880
0.199,2159
0.239,1534
0.33,2110
-0.41,9715
0.111,771
0.166,488
2.13,17
0.213,2499
1.88,229
-0.0651,6458
-0.115,8894
0.0191,4609
-0.163,7786
0.24,971
0.276,1532
-0.194,9320
0.0465,3435
0.158,905
0.163,2838
0.00408,5286
0.187,2041
0.42,1017
0.0819,3228
-0.246,9655
-0.154,8689
-0.195,9902
0.268,1120
0.00347,5065
-0.054,7146
0.117,1689
0.303,149
-0.0348,6149
-1.15,10936
0.176,1573
0.168,1315
0.0646,3065
0.0754,3962
0.432,1243
0.122,3437
0.037,3883
-0.188,10946
0.0358,4322
0.228,356
-0.303,10458
0.0341,4563
-0.137,8057
-0.0086,5675
-0.0406,6499
0.208,2602
-0.0608,7416
-0.423,10121
-0.344,10271
0.179,1886
-0.152,9515
-0.195,10372
-0.402,10871
0.161,1001
-0.0562,6823
-0.11,7684
-0.144,9552
0.245,1304
-0.0717,7682
-0.308,9536
-0.09,8505
-0.0114,5853
0.154,2168
0.293,853
0.215,2369
-0.115,7723
-0.00478,5318
0.0319,4102
-0.183,10532
0.0463,4197
-0.289,10405
-0.153,8352
0.273,2407
-0.172,8854
-0.089,8840
-0.416,10574
-0.0228,5846
0.118,3073
0.246,2108
-0.0705,7446
-0.101,7713
-0.381,10985
0.152,2743
-0.0868,7548
0.0333,4077
-0.0855,8511
-0.246,9553
-0.271,8957
-0.127,8747
-0.453,7143
0.156,3518
0.123,2850
0.0821,2382
-0.0245,6151
-0.0156,5542
0.179,1202
-0.214,9734
0.113,2122
0.0373,3279
0.0808,3981
0.104,2040
-0.189,10101
0.0686,4028
0.0911,2177
-0.363,10915
0.455,282
-0.00445,5278
0.0145,5092
0.0854,2275
-0.124,8855
-0.11,9064
-0.0694,7217
0.11,2687
-0.254,9338
-0.0532,6451
-0.19,10787
0.175,2584
1.02,1697
-0.00601,5648
0.21,3565
0.334,478
0.0205,4399
0.16,2272
0.0295,4797
-0.375,10129
-0.0905,8606
0.318,698
-0.139,9733
0.292,86
0.289,995
-0.238,10719
-0.128,7763
0.218,2891
-0.162,10418
-0.0735,7303
0.0666,3859
0.034,4442
0.0133,5046
-0.0658,6774
0.0521,3672
0.0316,4367
0.178,856
0.361,1066
0.169,942
-0.0821,7654
-0.0877,8840
-0.00594,5696
0.245,1082
0.15,1411
-0.525,10992
0.0923,3608
-0.0563,6647
-0.169,10178
-0.11,7534
-0.255,10799
0.155,1780
0.117,2608
-0.000612,5552
-0.0965,8189
0.246,1096
0.22,748
0.17,1751
-0.0255,5817
0.0639,3084
0.15,1826
-0.0454,6411
0.0872,3182
0.0111,4839
0.208,2249
-0.11,8166
-0.13,8009
0.684,397
0.0282,4581
-0.116,8177
0.514,211
0.513,77
0.0549,3145
0.173,2139
0.0926,3285
-0.194,7780
0.628,234
0.00145,5209
-0.108,8910
-0.11,7254
0.138,2949
0.225,2138
-0.4,10445
0.366,109
-0.0611,6558
-0.175,6517
-0.0575,5536
-1.06,9935
0.643,1470
0.285,366
-0.0466,5469
0.0928,3823
0.087,3191
-0.351,9607
0.408,445
0.0176,4641
0.0112,4863
0.269,2325
0.0175,4959
-0.129,9229
-0.156,7602
-0.0884,7767
-0.0491,7959
-0.0445,6607
0.0792,3589
-0.0391,5944
-0.0815,7108
-0.13,9319
0.0607,3140
-0.0174,5526
0.0602,3540
-0.0225,5935
0.331,1217
0.0876,2693
0.125,2240
0.144,1993
0.138,2607
-0.27,10486
-0.0772,6743
-0.113,8895
0.025,4778
-0.402,10881
0.139,1976
0.159,2260
0.106,2950
0.149,1736
0.225,197
0.776,1727
0.291,1895
0.354,1001
-0.131,7570
-0.229,10629
0.121,2928
0.116,1652
-0.268,9751
-0.359,10336
-0.278,9268
0.0124,4881
0.0187,4170
-0.215,9610
0.28,1861
-0.138,9274
-0.0606,7102
-0.256,10810
-0.0328,6577
0.013,5312
-0.16,10633
-0.023,6753
0.368,1243
0.0955,2861
-0.17,10818
-0.258,10788
-0.0163,5337
-0.0391,5764
-0.605,10949
0.112,3464
0.637,29
-0.179,8946
-0.0342,5851
-0.364,10558
0.0443,4349
-0.182,7701
-0.0494,6921
0.754,1821
-0.241,6844
-0.151,6403
-0.0502,6259
-0.267,10499
0.13,2479
-0.133,10606
-0.143,9725
-0.00317,5438
0.309,672
-0.468,10914
0.109,3298
0.197,2957
0.087,3933
-0.175,8945
0.314,2875
0.267,1968
0.181,1701
-0.0916,6611
0.124,2841
-0.171,8895
0.389,108
0.162,1844
0.44,670
-0.283,9709
0.0491,3725
0.138,2341
-0.093,7212
0.0618,3787
-0.214,7741
0.411,701
-0.0693,8375
0.162,1121
0.0984,3282
-0.00932,5643
-0.291,9225
0.19,1720
0.0866,2423
-0.172,9308
0.0695,3945
0.0412,4262
0.279,1240
-0.137,7168
0.0639,3596
-0.244,10473
-0.0134,5506
0.0153,5008
-0.261,7846
0.23,1840
-0.476,11028
-0.155,10131
0.233,1186
-0.113,7705
0.0879,3585
0.0298,4888
0.165,1390
0.00437,5041
0.156,1956
0.0793,3740
-0.276,8646
0.0152,4683
0.338,330
-0.194,9778
0.25,1524
-0.435,10943
0.0182,4674
-0.228,9992
0.0403,3934
-0.108,10358
0.267,1006
0.19,1973
-0.00846,5280
0.0228,4788
-0.0779,6660
0.0791,3105
0.321,1031
0.464,486
-0.103,7485
-0.0115,5441
-0.274,9937
-0.0183,5924
0.033,4672
-0.895,10679
-0.177,8159
-0.0484,6072
0.0197,4593
-0.126,8058
0.138,2631
0.0154,4849
-0.173,9267
0.235,561
-0.196,9707
-0.0393,5864
-0.0551,6943
0.0496,4393
0.37,488
-0.19,9620
-0.0412,7177
0.0418,4260
-0.0449,6945
-0.225,5946
-0.0231,5383
0.0685,3061
-0.0871,7717
0.0248,4847
0.515,596
0.239,198
0.229,773
0.144,1315
0.25,456
-0.137,10661
-0.0105,5217
0.349,1745
0.365,1178
-0.0356,6189
0.031,4248
0.102,3344
0.141,2331
-0.176,9889
0.0806,2607
-0.0491,6641
-0.0806,8487
-0.0575,7164
0.459,122
-0.0396,5952
0.122,3506
0.466,2409
-0.0498,6750
0.122,2444
-0.12,9262
-0.273,9346
-0.0841,7478
-0.329,10530
0.169,1154
0.14,3303
-0.174,10360
-0.319,10630
-0.204,8259
-0.0251,6115
0.0675,3162
0.0853,3203
0.363,665
-0.221,8319
-0.145,7477
0.234,114
-0.582,11033
0.409,2024
0.29,2828
0.113,4119
0.524,262
0.289,1497
0.0353,4482
-0.158,7880
0.0992,2093
0.128,3464
0.0422,4400
-0.143,9515
-0.0203,6011
0.0272,4724
0.634,1069
-0.0645,5975
0.00143,4908
0.73,462
-0.0842,6371
-0.149,7323
-0.209,10249
0.0805,3983
0.498,367
-0.0852,8585
0.0156,4750
0.165,2650
0.189,1571
0.141,2049
-0.151,6718
-0.0625,8646
0.0636,3321
0.337,343
0.271,817
-0.155,8936
0.326,769
0.139,2523
-0.0626,7011
-0.000383,4946
-0.179,7584
-1.16,11020
-0.22,10103
0.0652,3553
0.0561,3489
0.418,926
-0.203,9291
-0.167,9278
-0.104,7756
-0.0609,8554
0.146,1041
0.566,1606
0.224,1898
-0.49,10802
-0.0547,6436
-0.259,10695
0.112,1582
-0.0418,7169
0.116,2376
-0.0617,5729
-0.0307,7123
-0.0447,6235
-0.075,8425
0.00847,4964
-0.229,8447
-0.16,7487
-0.0804,7342
-0.231,9702
-0.18,9548
-0.00814,5894
-0.157,8280
-0.171,9288
0.0233,4966
-0.0645,8021
0.0608,2991
0.0267,5059
-0.117,8003
0.00918,4909
0.599,47
0.0815,3259
-0.0591,6929
0.184,1055
0.0963,3857
-0.104,6609
-0.166,7379
-0.0887,7595
-0.141,8564
-0.172,9364
-0.177,9089
0.487,1667
0.0693,4189
0.161,1022
-0.0686,8006
-0.0846,7416
-0.0757,7245
0.208,86
-0.426,10507
-0.132,10434
-0.0512,6931
-0.339,10486
0.119,2969
-0.196,8816
0.148,2948
-0.0401,6210
0.0899,2679
0.222,1314
-0.114,10032
0.345,2268
-0.122,8413
-0.0586,7919
0.101,1889
-0.0554,6671
-0.225,10105
-0.0963,6155
-0.201,8193
-0.0984,8024
0.199,196
0.153,1612
0.0886,3747
-0.509,8712
-0.0624,7016
-0.00249,5110
0.00718,5206
-0.402,9530
0.131,2593
-0.506,10931
0.0384,4615
0.171,590
-0.0689,6836
-0.0431,6279
-0.193,9838
-0.871,10967
-0.112,8828
-0.0502,7230
-0.0254,6482
-0.0104,5399
-0.146,8323
0.448,952
0.166,1460
0.487,5
0.006,5075
-0.0606,6855
-0.223,9472
-0.118,9428
0.253,1206
-0.0246,6248
0.113,2891
-0.445,9928
0.218,822
-0.429,9187
-0.702,10898
0.103,3347
0.0662,3880
-0.0852,7910
-0.0825,8136
0.133,2054
0.119,3477
0.0467,3885
0.0522,4550
-0.0552,6407
0.0612,3724
-0.106,7013
0.193,2467
0.072,4224
-0.418,10506
0.117,3646
-0.071,6225
-0.805,9115
-0.0399,6777
0.0172,4866
0.178,1210
0.166,1788
0.25,1335
-0.0679,6273
-0.159,7744
-0.125,8227
0.155,1697
-0.864,10991
0.0426,4092
-0.0399,6129
0.0482,4062
0.0951,2586
-0.000977,5481
-0.0383,6663
-0.167,9706
-0.157,8107
-0.363,10864
-0.00164,5480
0.0682,2917
-0.18,9245
-0.31,10207
0.254,1888
0.155,3287
0.129,348
-0.284,10261
-0.0969,7364
-0.257,9554
0.0502,4221
0.0293,4825
-0.0245,5953
0.539,2
0.0209,4938
-0.0483,6053
0.00914,5231
-0.0653,6453
0.121,1239
0.023,4382
0.054,4416
-0.0765,6135
0.305,1649
0.298,1484
0.273,2359
-0.0899,9061
0.00548,5312
-0.0103,5647
-0.191,6657
-0.73,9795
-0.109,9426
-0.0208,5824
-0.0653,7047
0.287,443
-0.156,9156
-0.000944,5049
0.0396,3645
0.0116,4848
-0.347,11019
-0.0579,6828
1.09,522
0.149,2213
-0.191,9445
0.0903,2690
0.102,3384
0.223,3061
-0.139,7298
0.174,1487
0.044,3908
-0.152,9841
0.357,1073
-0.205,8108
-0.355,10988
0.0706,3377
0.0121,4818
0.609,277
0.133,2903
-0.227,9697
-0.127,8043
0.0388,4420
-0.103,7922
0.0107,4719
-0.091,6869
-0.000698,5341
0.0775,3762
-0.348,8987
0.0791,2195
-0.195,10015
-0.266,10602
-0.178,9624
0.338,592
0.363,283
-0.0735,7747
-0.0475,6061
-0.142,8313
0.121,2365
-0.0651,6651
0.0371,3573
0.206,998
0.0943,1774
-0.07,6983
0.0766,3990
0.142,3178
0.0884,2897
-0.0139,5886
-0.00497,5758
-0.0531,6440
0.277,1360
-0.0677,6774
-0.0493,6761
-0.0123,5751
0.341,318
-0.0306,5726
-0.286,10462
0.0718,2734
-0.106,8170
0.224,686
-0.0388,6670
-0.356,9950
-0.647,11029
-0.0392,5836
0.26,1062
-0.0672,6772
0.264,89
0.163,2594
-0.0665,6102
0.114,2736
-0.0779,6636
0.0318,4387
0.000268,5471
-0.357,10446
-0.553,10995
-0.238,8857
-0.307,8874
-0.175,9282
0.236,826
-0.202,9776
0.129,3355
-0.0483,6744
0.11,3196
-0.0522,7413
-0.194,9905
-0.0371,6204
0.0923,3720
0.126,3237
0.846,69
-0.248,10449
0.15,1287
-0.346,10368
-0.235,9310
-0.201,8757
0.0796,2895
0.0454,4081
-0.115,9554
-0.117,7208
-0.322,9482
0.0602,4159
-0.155,7911
-0.217,10567
-0.192,10879
0.527,157
-0.345,10370
-0.0266,5689
0.139,2431
0.177,1424
0.25,35
0.211,1369
-0.243,10355
0.164,2943
-0.02,6120
-0.155,9960
-0.0983,9739
0.113,3291
-0.0195,6185
-0.0549,6528
0.0498,4470
-0.112,8914
-0.205,10255
0.166,1007
-0.271,10001
0.104,3570
-0.15,8702
-0.176,10009
0.234,779
-0.0515,7062
-0.204,7202
0.27,2399
-0.291,10298
0.0514,4001
0.0342,4636
0.221,1995
-0.297,9913
-0.0321,6338
0.0812,4177
-0.00386,5133
-0.0794,7760
-0.0312,6052
0.0547,3910
0.283,470
0.185,1932
-0.00704,5906
0.0484,3755
-0.163,8057
0.193,1003
-0.154,8645
0.0119,4979
0.00878,5067
0.051,3411
0.578,206
-0.325,9928
0.00444,5174
0.634,1120
-0.003,5166
-0.0986,9559
0.118,3295
0.00905,4994
-0.112,7890
0.505,73
-0.0309,6045
0.0635,3735
-0.132,8729
-0.181,9329
0.032,4394
-0.177,9646
-0.00423,5469
-0.185,7911
-0.0271,6178
0.14,2702
0.104,3943
-0.0677,9184
0.0526,4168
0.154,1226
0.256,1070
-0.0361,6664
-0.0539,6388
0.273,578
-0.0701,7657
0.136,3092
-0.325,10312
-0.0679,6713
-0.359,10245
0.29,935
0.204,1290
0.136,2863
-0.0515,7106
0.0501,4309
-0.00273,5241
0.0266,4239
0.188,410
-0.227,8484
-0.114,7813
-0.0387,6153
0.509,1353
0.0169,4742
-0.106,9634
0.909,28
-0.124,8847
0.541,445
-0.368,9230
0.0286,4001
0.0385,4437
0.111,1534
-0.109,7504
-0.153,7999
0.0329,4444
-0.391,10993
-0.0838,7993
-0.066,6713
-0.295,11022
0.178,3134
-0.23,9519
-0.153,9279
-0.114,8738
0.247,1303
-0.156,8752
-0.103,7417
-0.168,7466
0.108,2160
-0.244,8067
-0.189,8656
0.00497,5305
-0.353,9625
0.0261,4294
0.254,678
-0.0304,5823
-0.586,10333
0.151,3393
-0.115,6971
0.112,3330
0.00656,5068
-0.107,8383
-0.234,9907
0.0198,4959
-0.0755,9255
-0.351,10862
-0.149,10039
0.0365,4146
-0.0841,5979
-0.577,7350
0.125,3479
0.476,1767
-0.408,10753
0.0503,3578
0.135,3046
0.0951,3408
-0.105,8829
-0.0916,7191
-0.108,8485
0.0187,4805
0.43,176
-0.0301,6171
0.259,1459
1.55,285
0.00325,5173
-0.177,10491
0.26,586
0.0521,3885
0.0613,4169
-0.0549,5896
0.0967,3277
-0.0192,7182
0.677,631
-0.153,8913
1.29,151
0.466,478
-0.0173,5951
0.0277,4122
0.502,2252
0.16,3054
-0.158,10562
-0.0223,6076
-0.117,9754
-0.012,5879
0.00697,4397
0.239,854
-0.0848,8450
-0.246,9763
0.0232,4517
0.0236,4478
0.0379,4626
0.312,1295
-0.0661,6700
0.00791,5093
0.102,2571
0.13,2112
-0.41,10140
0.226,2899
0.248,2101
-0.167,8008
0.316,341
0.119,1024
0.0659,2945
-0.127,8096
0.248,1081
0.42,1641
-0.882,8923
-0.253,10605
-0.0418,7320
-0.281,9769
0.0782,4053
0.103,3354
-0.353,8573
-0.112,7856
0.0705,2745
-0.179,8455
0.196,2132
-0.362,10983
-0.258,7940
-0.202,10146
-0.179,8806
-0.0406,7058
0.0573,4193
0.196,1216
-0.239,8972
0.235,198
-0.0108,5444
-0.358,10880
0.379,487
0.145,3489
0.205,2900
-0.0969,10072
-0.0974,7544
-0.247,10777
-0.0917,8075
0.0324,4692
-0.263,8478
0.0347,4525
0.191,3068
-0.404,10452
0.0332,4562
-0.259,9462
0.0588,4007
-0.211,10658
-0.0604,8851
-0.164,7556
0.0417,3610
-0.00726,5065
-0.342,9040
0.112,2736
-0.358,10894
0.00227,5608
0.0491,4251
0.352,1592
-0.159,9881
-0.0591,6356
0.0441,3100
-0.413,10997
0.0152,5023
0.0573,4235
0.362,653
0.307,247
0.0063,5063
-0.0498,6272
0.447,508
0.0912,1670
0.309,748
-0.174,10235
-0.106,9231
0.0933,2970
-0.302,10199
-0.0345,5814
0.192,2647
0.0853,3328
0.181,493
0.624,105
0.186,717
0.78,355
-0.124,8387
-0.0433,6534
-0.25,9311
0.343,184
0.142,3252
-0.0716,7261
-0.00373,5360
-0.11,8700
0.193,1716
0.0387,3832
-0.31,9955
-0.128,7328
-0.0187,6046
-0.302,10869
0.712,183
-0.176,9945
0.225,1002
0.13,2046
-0.0661,7896
0.217,1232
0.109,2498
-0.17,8665
-0.28,9767
0.2,1728
-0.0214,5699
0.0905,3811
-0.195,8821
-0.21,8525
0.107,2299
-0.0297,5589
0.0202,4623
0.18,1708
0.0409,4220
0.621,93
-0.107,5361
0.0338,4413
0.0216,4839
0.0371,4381
0.18,3760
0.0677,4249
0.418,837
-0.199,7442
-0.756,10525
0.23,2168
-0.0723,7534
-0.448,10618
-0.117,7581
-0.00744,5863
0.0164,4616
-0.152,8942
-0.0652,5994
-0.285,8409
0.00217,5323
-0.00212,5525
0.108,1693
0.0678,3699
-0.21,10475
-0.0455,6758
-0.104,7363
-0.173,9147
0.0504,3833
0.168,3047
0.0605,3619
-0.172,10559
-0.192,7675
-0.309,10711
-0.0624,7978
0.0487,4519
-0.348,10603
-0.147,8275
-0.0216,5702
0.0888,3143
-0.146,8423
0.299,1332
0.00209,5183
0.0376,4200
-0.338,9145
-0.0775,8063
0.0296,4523
0.0342,4538
-0.0185,5213
0.134,2698
-0.0833,6694
0.0868,2329
-0.223,10101
-0.0453,5639
0.155,2768
0.0526,4085
-0.139,8284
-0.255,10577
-0.0455,7411
0.0617,3152
0.0179,4911
-0.596,10123
-0.199,9254
0.19,1522
-0.0633,8379
-0.134,8517
0.503,953
0.457,660
-0.344,10898
-0.00804,5735
-0.0271,6048
0.0276,4797
-0.00736,5505
0.165,2506
-0.073,7193
0.00506,5120
-0.0577,6705
-0.078,6894
0.00338,5219
-0.482,10732
0.105,3490
-0.00513,5354
0.0125,4903
-0.0515,6570
0.103,2376
-0.084,7772
0.137,749
0.0377,4241
0.176,1335
0.285,1022
0.143,772
0.0775,3532
0.0554,4065
0.14,1176
0.0508,4006
-0.0801,7977
0.0177,4650
0.0601,3661
0.0803,3627
0.0497,4104
0.155,1441
0.0629,3974
-0.0727,6425
-0.132,8120
0.207,884
0.513,273
0.0628,4153
0.071,3542
-0.123,7589
0.115,3092
-0.632,9692
-0.172,10045
-0.218,10967
0.0539,3630
0.193,2636
-0.252,10806
0.0303,5073
-0.0375,6975
-0.0661,7808
-0.0272,6261
-0.125,7894
0.0737,4152
0.0816,3673
0.0664,2987
-0.179,10581
0.198,1256
-0.253,10609
0.222,2392
0.0812,3657
0.209,1658
-0.0265,6510
-0.106,8586
-0.285,10848
0.0427,4160
0.108,1916
0.26,2187
0.467,301
0.0081,5069
0.0557,4557
0.575,2034
2.21,151
-0.0221,6236
0.126,756
0.0164,5087
-0.245,7839
0.193,897
-0.154,7210
0.124,2962
0.0842,2851
0.52,358
0.285,350
0.196,1729
0.0883,3918
0.149,3426
0.187,2331
-0.297,10224
-0.0259,5574
0.0166,4999
0.206,1243
0.0273,3836
0.0844,2304
-0.114,7470
-0.235,10350
-0.141,8404
-0.0374,6324
-0.0359,7125
0.0156,4576
0.122,1907
-0.0387,6252
0.089,3721
-0.0686,7441
-0.223,10494
0.0401,3926
0.236,477
-0.259,10551
0.00326,5033
0.131,4115
-0.157,9525
-0.315,10831
0.103,3486
-0.0107,5002
0.415,152
-0.182,9141
0.124,1473
0.0246,4390
-0.0873,6787
0.00292,5200
-0.233,10001
0.251,595
-0.0615,6681
-0.00328,5454
0.0241,4347
-0.118,8410
0.0331,4169
0.111,2420
-0.0398,6730
0.123,1913
-0.394,11015
-0.423,10846
0.576,731
0.063,4001
0.0102,4864
0.0621,3251
-0.0626,7176
-0.0675,7324
-0.435,10757
0.193,2192
-0.225,10401
-0.0396,6743
-0.173,9344
-0.212,9756
-0.141,7293
0.132,2979
0.0657,2917
-0.0315,6677
0.0431,4142
0.12,2859
-0.169,6711
-0.0757,8321
-0.0919,8312
-0.265,9840
0.0267,4371
-0.216,8198
-0.0969,7944
-0.0993,7352
0.0824,2951
-0.22,10677
0.0227,4705
-0.232,8466
-0.152,8951
-0.915,9901
0.158,1179
0.111,1772
0.177,2616
0.341,2074
0.00158,5298
-0.194,7795
-0.111,7870
0.0904,2707
-0.12,7349
0.16,2618
-0.152,7780
0.0623,3730
-0.119,9772
-0.232,10079
0.09,4016
0.616,423
0.135,3364
0.279,289
-0.123,9830
-0.0848,9505
-0.263,10149
-0.248,8096
0.169,2096
-0.0382,6024
0.644,1496
0.0569,2602
-0.354,10448
-0.0555,6548
0.644,365
0.0236,4594
0.0894,3991
-0.0614,7820
0.0487,3939
0.0153,4904
0.175,3394
0.218,1815
0.136,1913
0.108,2905
0.0613,3964
0.283,1542
0.678,351
0.117,3977
-0.0437,6865
-0.247,10536
0.0508,4111
-0.175,9610
-0.126,8115
0.159,1085
-0.000115,5159
0.142,1309
0.0323,4667
-0.406,10949
0.104,3760
0.451,554
0.334,84
-0.173,10068
-0.251,8610
-0.382,10991
-0.0822,7334
-0.225,10286
-0.179,10378
-0.0858,6955
-0.296,10862
-0.107,7503
-0.342,10768
0.342,1555
-0.0942,8033
0.266,1091
0.304,1311
-0.0846,9437
0.23,1903
0.015,5076
0.167,1643
0.078,2510
0.116,3027
-0.0218,6119
-0.137,8456
-0.176,9000
0.151,1040
0.135,947
0.0793,3857
0.21,1723
-0.0588,7109
-0.221,9408
-0.044,6205
0.0332,4244
-0.308,9197
0.301,2783
0.232,1178
-0.067,6630
-0.0392,6428
-0.264,10946
-0.265,9100
-0.449,10409
-0.0167,6158
1.68,50
0.188,1780
-0.000468,5386
0.181,1706
0.0939,4213
0.132,2799
0.0721,3972
0.0824,1243
-0.0396,6714
-0.0997,7724
-0.145,8200
0.0051,5266
0.224,1445
-0.264,10779
0.0293,4470
0.0614,4036
0.202,1539
-0.11,7336
-0.0933,7486
0.239,575
-0.438,10823
-0.14,7688
0.252,1087
-0.171,8140
-0.309,8521
0.0641,3636
-0.0701,8257
-0.0712,6798
0.0932,3545
0.0171,4814
0.141,2128
0.0262,4812
0.269,2792
-0.0335,6697
0.202,1425
-0.0467,7442
0.159,2163
-0.215,10254
0.0802,2343
0.0185,4812
0.14,2517
0.246,891
-0.353,9792
0.0276,4437
-0.252,9290
0.188,3214
0.342,1174
0.00565,5060
-0.119,6642
-0.0291,6137
-0.369,10051
-0.148,7505
0.0417,4483
-0.0113,5474
-0.231,10536
-0.00962,6041
0.0344,3912
-0.147,8888
-0.0235,5549
-0.0063,5102
0.101,1634
0.0768,3365
-0.0165,6218
-0.0565,6467
-0.393,10202
0.419,3095
0.373,1927
-0.00721,5472
0.0502,4541
-0.125,7931
-0.191,10672
-0.368,9525
0.216,2458
-0.198,9929
-0.02,5680
0.178,1523
0.254,1305
0.296,551
0.099,3343
0.0886,2215
-0.114,9532
-0.214,9901
0.0834,3003
-0.163,8888
-0.0267,5837
-0.295,10944
-0.0292,5423
0.141,2310
0.319,493
0.139,3188
-0.0721,6926
-0.00308,5747
0.0781,3814
0.212,1727
0.465,122
0.0659,3901
0.124,3668
0.0673,3907
0.0169,4490
-0.0501,7283
0.0627,3186
0.0378,4412
-0.0486,6562
-0.0982,8295
-0.105,7971
0.199,2765
0.0496,4386
0.635,59
0.203,2983
0.166,1514
0.0192,4343
-0.0187,5510
0.0905,2807
-0.043,6429
0.17,751
-0.0636,7480
-0.0552,7008
-0.336,10362
0.145,1673
0.135,2861
0.0535,3619
-0.0146,5833
-0.0687,8245
0.58,90
0.183,1920
0.0128,4937
-0.283,10297
0.107,3305
-0.103,7265
0.0327,4425
0.436,1630
0.351,525
0.427,893
0.105,1530
-0.234,10457
0.0132,4828
0.248,2512
0.122,3056
-0.495,9415
-0.134,9453
-0.233,10119
-0.188,8568
-0.0822,7227
0.117,2301
-0.251,7373
0.0195,4449
-0.0353,7094
-0.0768,6778
-0.345,10167
-0.268,9805
-0.47,10060
-0.0226,6121
-0.096,6971
-0.026,5999
-0.105,7986
-0.13,5847
0.28,1327
-0.126,8970
-0.184,10346
0.142,3102
0.0134,5008
0.0538,3804
-0.309,8873
0.223,445
0.0192,4454
0.123,3105
-0.0618,6807
0.169,1776
-0.0885,7107
0.0714,3307
0.192,1113
0.116,2377
0.0105,5170
0.102,2274
0.0393,4087
-0.149,8690
0.0286,4584
-0.108,7236
0.171,2138
-0.279,11007
0.155,3514
-0.119,9562
-0.165,9343
-0.355,10456
-0.0297,6617
-0.135,6398
-0.115,7700
0.151,1285
0.0812,2938
-0.277,8044
-0.0191,5247
0.34,1599
-0.156,10670
-0.0481,7287
-0.113,7911
-0.028,6258
-0.182,9241
-0.327,10359
0.154,1956
0.137,2884
-0.222,10328
-0.0164,5734
-0.00594,5111
-0.179,9106
0.0912,3365
0.0255,4841
-0.116,6471
-0.339,10229
0.194,2005
-0.295,9613
-0.158,7674
-0.469,10880
0.11,3805
0.289,2588
1.11,346
0.00273,5242
-0.17,10764
-0.00863,5748
-0.116,8035
-0.136,8765
0.104,3259
-0.264,9972
0.243,609
0.163,1974
0.114,3330
0.164,2419
-0.0355,6338
0.178,1172
-0.31,10038
-0.0875,6536
0.286,887
-0.303,10931
-0.338,9587
0.16,1236
0.04,4405
0.0673,994
-0.258,9626
0.0417,4332
0.0909,3592
0.218,1352
0.0563,3674
0.0147,4853
-0.0763,7377
-0.101,8759
-0.0609,6650
0.151,2322
0.135,1327
-0.0685,7255
0.825,1121
0.313,743
0.135,3009
0.0368,4245
0.0912,3148
-0.0279,6089
-0.0966,7353
0.0434,4624
-0.0713,6055
0.507,1559
0.0509,3049
-0.0509,6652
-0.224,9906
-0.0923,6636
-0.235,7905
0.571,1514
0.187,1980
-0.0175,5767
0.0192,4762
-0.335,9682
0.0485,3539
-0.431,10868
0.0174,4547
0.127,2703
-0.0366,6379
-0.11,7254
0.13,2945
0.286,860
0.405,146
0.0222,4426
0.306,1213
0.492,541
0.0822,3459
0.0992,3103
-0.133,9989
-0.0657,7322
-0.151,9394
-0.0462,5920
0.247,2602
0.352,1826
0.0627,3650
-0.2,10857
-0.095,7563
0.0673,3682
0.0923,3083
-0.79,10990
0.169,1569
0.0533,4343
-0.187,10003
0.0819,3028
-0.0641,7702
-0.0542,7461
-0.145,9031
-0.00568,5377
-0.0361,5445
0.156,2301
-0.0131,5857
-0.383,10260
-0.0761,7435
-0.237,9703
-0.0643,5756
0.223,790
0.0524,4620
-0.258,8475
-0.0862,8024
-0.0678,6877
-0.117,7586
0.109,2366
-0.23,10646
0.137,3475
-0.239,10459
0.0237,4440
-0.306,7288
-0.236,10036
0.0724,3726
-0.0319,6157
0.195,980
-0.36,10690
0.348,513
-0.71,10917
0.0211,5002
-0.057,7876
0.0791,2651
-0.00613,5664
-0.0959,8585
0.15,1439
-0.149,7242
-1.13,10722
0.092,2690
0.0146,4787
0.242,786
-0.119,7767
0.238,2524
0.0223,4463
0.0909,2798
-0.0932,8328
-0.0184,4815
-0.0218,7429
-0.0243,7013
-0.0144,5569
0.0609,3589
-0.985,10483
-0.068,6698
-0.0632,9045
-0.0218,6808
0.447,2584
-0.302,6089
-0.0826,8775
0.00896,5099
-0.007,5550
-0.0352,5988
0.0997,3565
0.317,978
-0.23,9974
-0.0219,5919
-0.119,8259
-0.244,8065
-0.174,9311
-0.183,8944
-0.0113,5370
0.167,584
-0.178,10243
-0.165,8826
-0.127,7220
0.0757,4327
0.158,2406
-0.0105,5571
-0.0157,5938
0.0561,3471
0.0644,4060
-0.563,10424
-0.0279,5750
-0.0232,5880
0.11,2964
0.217,564
-0.0276,6212
-0.131,8373
-0.00877,4787
0.139,2407
-0.169,10228
0.125,2426
0.362,251
0.0452,3803
-0.514,9737
0.0413,3976
0.142,2236
0.0169,4967
0.021,4843
-0.0819,6306
-0.122,8759
-0.0273,6794
-0.0912,7742
-0.111,8203
-0.0892,7032
0.0231,4627
-0.176,9466
0.19,1404
0.056,2601
-0.0871,7172
0.202,904
0.0475,4401
-0.0647,7293
-0.0969,9513
0.337,70
-0.0278,6137
-0.441,8511
-0.111,8897
0.0512,4114
0.0908,2073
0.126,1577
0.166,1957
0.0246,4762
0.0939,3035
-0.0907,7281
-0.0826,6769
0.13,1428
-0.0472,5969
-0.139,9308
-0.267,9225
0.299,1701
0.0409,4199
0.183,2371
-0.12,8788
0.0579,3880
0.316,647
0.131,3210
-0.16,8990
-0.0379,7017
0.101,2875
0.136,2272
-0.201,9889
-0.104,7757
-0.0773,8937
-0.0119,6046
0.0186,4758
0.203,2493
3.33,163
0.062,4342
0.0348,3946
-0.00951,5602
0.137,2072
-0.0356,6323
-0.178,8589
0.204,1919
-0.0776,7332
-0.0341,6069
-0.0951,5738
0.0113,4225
0.118,3667
-0.498,9642
0.377,753
-0.117,6498
0.0154,4733
-0.187,8318
0.427,1122
-0.0751,7012
-0.151,10496
0.408,214
0.0867,2916
0.36,1590
0.332,147
0.558,648
-0.242,10533
-0.191,10508
-0.0344,6599
0.413,1254
0.0918,3459
-0.0115,5969
-0.143,9091
0.147,1494
0.0591,3883
-0.0682,6130
-0.172,8852
0.0258,4982
-0.123,8345
-0.0627,7203
-0.0245,6156
-0.0624,6825
0.218,2204
-0.153,7669
-0.0715,7653
0.406,281
0.319,496
-0.324,10609
-0.205,7710
-0.131,9511
-0.132,8860
0.251,142
-0.0797,6524
-0.0374,6791
0.656,19
0.196,1828
-0.19,9179
0.0368,3719
0.0351,4235
-0.0309,5226
0.0691,3425
-0.0122,5688
0.0723,3294
-0.0437,6565
0.127,2526
-0.408,6535
0.152,2911
0.0271,4370
0.0593,2972
-0.303,10711
1.78,132
-0.0525,6592
-0.163,10125
0.185,1032
0.0918,2851
0.342,45
-0.568,10590
0.0301,4577
-0.139,9282
-0.0536,7177
0.106,2696
0.0844,3251
0.085,3705
-0.191,8934
-0.0079,5542
1.06,10
-0.321,10715
0.0815,3370
0.111,3802
-0.129,8595
0.0242,4067
-0.0467,7083
-0.257,10805
-0.211,9863
-0.303,9841
-0.0662,6861
0.209,1566
-0.107,8158
-0.252,9968
-0.0588,7127
-0.277,9488
0.268,1966
0.13,1799
0.156,1698
-0.439,10657
-0.0554,6565
-0.262,9681
0.141,2075
-0.0479,6653
-0.106,8971
-0.297,10178
0.6,914
-0.172,7711
0.0195,5092
-0.113,9648
-0.137,9608
0.0987,3364
-0.0449,5922
-0.0351,6352
0.595,275
-0.0975,8962
-0.0243,5761
0.00712,5088
0.198,972
-0.133,8618
0.0835,3223
-0.123,8669
0.0242,4381
-0.221,10250
-0.301,10105
0.145,2456
0.00436,5184
-0.173,10314
0.00972,4992
0.242,1560
-0.0605,6907
-0.3,10272
0.0678,3677
0.0136,4940
0.018,4814
0.364,83
-0.219,10308
-0.0125,5643
-0.139,9831
0.0212,4270
-0.231,8490
0.204,654
-0.179,7347
-0.0861,7416
0.0404,4035
-0.0989,10161
-0.189,9500
0.0973,3232
-0.157,9165
-0.0975,6449
0.22,413
-0.183,10402
-0.0873,8320
-0.438,10585
1.54,212
-0.183,7752
-0.248,10180
-0.177,10191
-0.247,10360
-0.0201,6351
0.307,1216
-0.108,7172
0.0118,5010
0.00614,5155
0.217,868
-0.0195,5825
-0.0855,8290
-0.044,6764
-0.0116,5715
0.0341,4174
0.146,2855
0.144,2681
-0.0192,5782
0.272,2136
-0.0124,5543
-0.0278,5816
-0.379,8147
-0.427,10429
0.27,2948
0.0716,4138
-0.0926,7574
0.0663,3298
0.0198,4871
-0.0964,7955
0.00999,5170
2.58,435
-0.051,6730
-0.193,7656
-0.045,6014
-0.117,7255
-0.277,9890
-0.149,8492
-0.155,9736
-0.122,8828
-0.0156,5959
0.236,3147
-0.307,10433
0.239,690
0.16,1895
0.225,891
-0.364,10277
-0.231,9845
0.545,1149
-0.783,10863
-0.084,8209
0.147,349
0.327,296
-0.129,8495
0.185,3157
-0.174,9516
-0.0583,6996
0.0326,4401
-0.239,10266
-0.0468,6094
-0.474,10940
-0.0284,6125
-0.223,10723
0.0315,4288
0.155,1977
0.00582,5209
0.0401,3623
0.321,285
0.0355,3636
0.096,2907
0.36,736
0.103,2713
-0.0294,6180
0.206,1632
-0.154,10654
-0.0656,7290
0.0967,3038
-0.00995,5660
0.267,3010
-0.282,9257
0.149,1075
-0.0397,6341
-0.208,9983
0.0958,3958
0.0779,2650
0.534,1533
-0.045,7917
0.0332,3557
-0.185,8229
-0.0705,6224
0.201,1886
-0.39,10751
0.0939,3322
-0.0253,6339
-0.0311,6102
-0.358,10772
-0.000706,5229
-0.0674,7169
-0.199,10961
-0.225,8960
-0.218,9774
0.0388,4066
0.147,2966
-0.138,7580
-0.0766,8125
0.213,649
0.2,1691
-0.141,6829
0.389,1314
-0.321,7600
0.274,210
0.0127,4982
-0.1,7833
-0.0675,7425
-0.38,8987
0.134,2365
-0.225,10445
0.01,4866
-0.49,10739
-0.257,10000
-0.157,9564
-0.121,8766
-0.0593,8321
0.141,1191
-0.0896,6702
0.0945,2722
0.176,2621
0.0483,4275
-0.0733,7985
-0.00556,5192
0.336,1171
-0.0593,5818
0.141,2074
-0.228,8681
0.18,2458
-0.0994,7478
0.301,255
0.00771,4895
0.186,644
-0.0845,8037
0.166,2329
-0.0808,8022
0.246,1700
0.222,882
-0.22,10661
0.00111,5107
0.029,4522
-0.131,8319
0.466,535
0.0712,2487
-0.171,10488
0.297,215
-0.135,7839
0.0768,3733
-0.117,8651
0.144,1966
-0.192,9430
0.0754,3563
0.204,2272
-0.0397,6078
0.771,42
0.0186,4605
-0.0698,6929
0.169,1563
0.118,2395
0.494,690
-0.0586,7601
0.131,2412
0.344,1391
-0.127,8315
0.144,1967
-0.151,8208
0.154,3218
0.184,2107
0.0734,2143
-0.371,10943
0.188,1007
-0.214,9070
-0.114,7125
-0.00233,5456
-0.0671,8000
0.126,2776
-0.34,10314
0.233,2274
0.342,1561
0.203,371
0.0846,2669
0.094,1357
-0.029,5590
-0.383,10563
-0.197,7462
0.269,824
-0.0881,8785
-0.112,9146
-0.0354,6910
-0.0647,6717
0.0804,2594
0.063,3391
-0.181,9195
-0.107,7888
0.0237,4617
-0.00859,5680
0.377,83
0.0998,1834
-0.436,11021
-0.148,8818
-0.152,8733
0.129,2929
-0.0518,7080
0.0139,5045
-0.142,9344
-0.257,10253
-0.169,9680
-0.175,7939
0.199,1835
0.105,3290
-0.0686,7116
0.247,649
-0.376,9998
-0.112,6439
0.0103,4789
-0.0783,7328
0.12,3408
0.123,2905
-0.292,10030
-0.0353,6724
0.314,900
-0.0935,6791
-0.177,8261
-0.319,10146
-0.00754,5321
0.265,1375
0.283,685
0.046,3651
-0.0413,6628
0.0566,4128
-0.277,9363
0.0868,3462
-0.19,9055
0.163,1832
-0.0223,6007
0.142,1989
0.135,2228
-0.0975,7742
-0.166,10222
-0.153,10166
-0.0568,5847
0.326,1163
0.419,172
0.0734,3717
0.0433,3231
-0.0179,6031
0.0892,3301
-0.0823,7745
0.182,1692
0.000968,5474
-0.0842,6827
-0.257,10766
0.0886,2997
-0.204,9469
0.0623,3839
0.0409,4208
-0.0488,6562
0.0732,3431
0.0261,4554
-0.216,9962
0.131,3093
-0.389,8169
-0.121,9387
0.0121,4870
-0.0948,7960
0.291,995
-0.00843,5574
-0.798,9337
-0.0498,7407
0.0829,2422
0.175,1766
0.226,2243
0.228,2658
-0.0319,5994
-0.0633,7049
0.0573,3967
-0.137,8125
0.0652,3929
-0.0561,7021
0.293,3097
-0.239,9911
-0.0676,7244
0.0245,4574
-0.496,11007
0.108,3395
0.551,541
-0.114,10167
0.0624,3470
-0.104,8333
0.189,1195
0.0185,4682
0.111,3851
0.0406,3398
-0.207,8821
0.31,2864
0.0237,4612
0.174,1870
-0.102,8675
0.26,86
-0.239,10989
0.0553,4301
0.00465,5271
0.0964,3398
0.0663,3835
0.00727,5178
0.045,3201
-0.286,10822
-0.172,8924
0.212,1941
0.459,1262
0.176,1899
-0.0631,7741
0.369,587
-0.48,10425
0.104,2825
0.0286,4714
-0.0998,8788
0.14,2596
-0.188,8352
0.169,1798
-0.155,7084
-0.0234,5864
0.0485,2793
0.103,2111
-0.0363,5898
0.118,2789
-0.587,10920
0.00792,4915
0.0442,3707
0.0282,4081
0.166,1306
-0.228,9828
0.296,1145
0.301,851
-0.122,9985
-0.0257,6455
-0.23,8081
-0.052,7235
0.722,27
-0.0651,5709
-0.0128,5806
-0.157,9267
-0.132,7823
-0.305,9039
-0.29,9898
0.223,2542
-0.172,9448
-0.024,5964
-0.0613,6519
0.0903,3795
0.0221,4642
-0.0739,6206
0.166,1143
0.0404,2945
0.311,1104
0.218,1183
0.206,3226
0.292,1261
0.204,170
-0.0561,7001
0.554,285
0.131,3129
0.147,3668
0.148,2830
-0.187,9480
-0.0894,6436
0.053,3738
-0.0544,7150
0.0167,4758
-0.168,7919
0.0746,2219
-0.0318,6158
0.0729,3783
0.142,1845
-0.0933,5425
0.553,1710
-0.0611,7119
-0.0215,6086
-0.143,9506
0.156,2993
0.0691,3804
-0.673,10733
-0.186,9554
-0.124,8321
0.0795,3418
0.168,3429
0.254,995
-0.307,9017
-0.12,10290
0.22,1556
0.00396,5206
-0.181,8583
0.0191,4613
0.0795,3818
0.0438,3977
-0.439,10830
0.123,2811
-0.175,9024
-0.0221,5856
0.283,1652
-0.0165,6008
-0.234,10230
0.0649,3821
0.0637,3933
-0.0618,6243
0.265,1404
-0.0672,8561
-0.0882,8514
0.281,516
0.0788,3023
0.323,1432
-0.223,9463
0.00561,5344
-0.334,10885
0.0388,4632
0.0481,4326
0.0798,2026
-0.25,8217
-0.0892,8679
-0.0152,6242
0.0489,3724
-0.0438,7033
-0.155,8802
-0.198,9931
0.148,2810
-0.105,8942
-0.279,10975
-0.0109,5471
0.34,900
-0.153,6419
-0.306,7249
0.00553,5074
0.135,866
-0.194,8631
-0.0137,5752
-0.128,8028
0.0169,4494
-0.0563,7418
0.0422,2888
-0.119,5767
-1.02,10898
-0.755,10611
0.416,1053
0.0322,4873
0.0919,2030
0.321,1260
-0.0139,5612
0.212,853
-0.0788,9262
0.0696,3295
0.124,2568
0.136,2771
-0.233,9386
0.174,2116
0.164,2233
0.0886,2035
-0.0016,5113
-0.191,8220
-0.377,9226
-0.133,7653
0.148,1802
-0.185,8990
-0.12,7540
0.13,2356
-0.322,10399
0.0275,4680
0.18,1979
0.171,1167
0.153,1160
-0.107,5403
0.101,3911
-0.184,7700
-0.0457,6287
-0.218,10816
0.0584,3329
0.102,4066
-0.345,8703
0.448,2569
0.765,628
-0.049,7164
-0.825,10014
0.886,273
0.105,3630
0.216,1244
-0.161,7345
0.021,5061
-0.0607,7010
-0.289,10583
-0.198,9376
0.187,822
0.0836,2926
-0.0979,7290
-0.0142,5615
0.0506,3013
-0.269,8945
-0.0967,7740
-0.182,9261
0.000548,5451
0.106,3648
0.00562,4929
0.242,581
0.0387,4695
-0.0935,7904
0.0126,4903
-0.00268,5278
0.272,424
-0.016,5887
-0.0739,8750
0.0521,3248
-0.398,10456
-0.114,7440
0.27,2390
0.234,781
-0.0671,6331
-0.0913,9391
-0.00874,4752
-0.204,7195
0.198,2643
-0.309,10426
-0.126,8611
0.0398,4106
0.0686,3507
0.155,2079
-0.209,9865
0.391,208
-0.0348,6883
0.222,907
-0.179,9399
0.0456,4060
0.147,2600
0.0596,4158
-0.157,10428
0.0702,2196
0.672,309
-0.0921,5422
-0.388,7941
-0.105,8207
0.208,1199
-0.0127,5541
0.0474,4383
0.237,786
-0.0296,6117
0.218,517
-0.0591,7466
0.0504,4498
0.0895,3233
0.425,1133
0.0546,4038
-0.0607,7598
0.317,282
0.212,2115
0.108,2442
-0.0225,5013
0.236,2211
0.0583,3179
-0.127,7826
0.161,2010
-0.176,9194
0.182,1518
0.0932,2595
-0.0716,7912
0.00483,5255
-0.44,10626
0.491,344
0.142,2323
0.0408,4158
-0.0298,6479
0.284,1488
0.332,1197
0.0155,4756
-0.00491,5211
0.0755,2535
0.189,2563
-0.109,7437
-0.0289,5748
-0.132,9448
0.139,2305
-0.136,9871
-0.322,11004
-0.191,10941
-0.151,9043
-0.0211,5613
-0.215,9272
0.161,3748
0.0665,3380
-0.14,9473
0.12,2626
0.0799,2744
-0.134,6666
-0.134,6494
-0.0583,7326
-0.0684,9358
0.211,2436
0.131,2236
0.0252,4596
-0.0276,5972
0.152,1991
0.05,3900
0.2,2020
0.0934,3234
0.321,189
-0.0183,5627
-0.011,5768
0.0869,2030
-0.0105,5453
-0.0435,6527
-0.13,7495
-0.0169,6066
0.882,253
-0.0895,7934
-0.0158,5325
0.365,950
-0.229,10510
-0.396,10476
-0.0301,6449
0.0136,4763
0.0074,5029
0.347,986
-0.121,7483
-0.042,5887
-0.0315,6614
0.0179,5183
0.142,2510
-0.0145,5862
0.12,4200
0.0668,3541
0.279,971
0.0904,2295
0.0507,3686
0.182,1444
0.0109,5086
-0.347,8140
0.182,1491
0.0147,4869
-0.218,10872
-0.107,7833
-0.21,9312
0.0578,3522
0.187,372
0.105,1629
0.259,1878
0.0763,4086
-0.302,9666
-0.258,9395
0.0248,4651
0.0812,3309
0.0951,3886
-0.221,9712
-0.243,8605
0.3,598
-0.326,10947
0.151,1533
0.0752,3934
-0.554,10933
1.01,398
0.161,2583
-0.137,7936
-0.225,10807
0.0632,3562
-0.152,8017
0.23,3798
-0.0311,6333
-0.0582,6382
0.164,2169
0.0118,5026
-0.0244,5917
-0.207,10878
-0.139,8573
0.267,440
-0.188,9532
-0.256,9674
-0.596,10858
-0.0155,5230
0.0764,2361
-0.0623,7173
0.817,1236
0.167,2668
0.559,124
-0.136,9415
-0.206,10343
-0.131,10169
0.14,816
0.194,674
0.0019,5269
0.209,529
0.128,1432
-0.242,10694
0.272,580
-0.144,9543
0.165,2391
-0.0101,5702
0.17,815
0.195,350
-0.0179,5597
-0.0879,8276
-0.474,10601
0.171,2672
-0.239,9668
-0.0781,7867
0.0523,3725
0.162,1843
-0.0757,7251
0.00816,4906
-0.179,9478
0.0558,2669
-0.0568,6892
0.0351,4393
0.163,699
0.132,2001
-0.0983,8478
-0.157,10721
0.0486,3947
-0.388,10799
0.103,3415
0.164,3304
-0.11,8343
0.0549,2987
0.089,3499
0.141,2173
-0.175,8491
-0.0323,4798
-0.00234,5486
0.00146,5126
-0.267,7819
0.277,711
-0.0298,5828
-0.00679,5664
-0.0788,7122
0.414,243
0.472,311
-0.00328,5540
-0.0699,5509
-0.134,6979
-0.0414,6800
-0.104,10229
0.0307,4449
-0.0727,7372
0.0241,4131
-0.544,11008
-0.128,9525
0.0791,2889
-0.398,10758
0.0399,4037
0.61,885
0.16,2376
0.107,2190
-0.0281,6973
-0.268,10425
-0.164,9798
0.123,3185
-0.18,10331
0.197,654
-0.261,10907
0.233,2048
-0.256,9584
-0.298,10295
-0.235,10511
-0.217,6350
-0.0995,8911
-0.00633,5504
0.181,1756
-0.0478,6026
-0.086,8032
-0.0165,5901
0.437,292
0.339,2427
0.399,434
-0.0175,6118
0.142,2798
0.13,2288
0.0586,4024
-0.0027,5420
-0.0108,5470
-0.0471,6856
0.227,3111
-0.0354,8127
-0.0756,7792
-0.187,10201
0.161,1965
-0.0921,6653
0.0973,3019
-0.336,10724
-0.06,7669
-0.0387,6642
-0.161,8870
-0.0539,6588
-0.0512,5989
0.261,1582
0.093,2712
0.143,2707
0.00804,4998
-0.287,9172
-0.343,10848
-0.0856,8161
0.153,1758
-0.163,9590
-0.052,6550
0.268,1347
0.0231,4628
0.602,281
0.0024,4935
-0.233,10114
-0.184,8710
0.0445,3956
-0.0166,5967
-0.074,8070
-0.236,9827
0.286,1071
0.153,3509
-0.0593,6117
0.528,253
-0.00815,5595
0.0822,2901
0.0292,4625
0.218,1746
1.09,108
-0.517,10369
0.0778,2056
0.237,1217
-0.348,10215
0.118,2958
0.0977,4061
-0.0291,6129
-0.0872,8067
0.0528,3364
0.39,1698
-0.0305,5586
0.11,3500
-0.333,10182
-0.249,10158
-0.148,7626
-0.0429,6787
0.292,1194
-0.314,10928
0.365,1531
0.0317,3732
0.08,2062
-0.0129,5865
-0.112,7305
0.0212,4950
-0.432,10596
-0.161,9199
-0.178,10541
-0.0154,5875
0.0155,4537
0.185,2442
-0.113,7949
-0.0282,7251
0.106,3305
-0.312,9622
-0.00977,5484
-0.484,11018
0.367,792
0.122,2576
-0.0415,9217
-0.0142,5714
-0.0581,6534
0.0135,5105
-0.00468,5407
-0.00063,5446
0.282,640
0.424,2641
0.148,2138
0.166,2624
0.00392,5244
-0.116,8516
-0.269,10575
-0.0456,6313
-0.0331,6353
-0.102,7625
0.0757,3127
0.0542,3238
0.127,540
0.623,243
-0.236,10449
0.214,2490
-0.238,10543
0.069,3335
0.102,2709
-0.0718,7616
-0.22,8888
-0.0226,6411
-0.342,9359
0.0979,796
0.243,279
-0.421,10770
-0.268,10255
0.276,1007
-0.0232,6064
-0.236,10874
-0.0268,6553
0.481,299
-0.593,10996
0.175,730
0.246,891
0.0456,3608
-0.286,10967
0.0338,4851
-0.0245,6230
-0.655,9865
-0.0253,5609
0.0377,4299
-0.0347,7332
0.0968,3505
0.254,1018
0.198,1394
0.167,1867
0.284,355
0.0315,4189
-0.398,10762
-0.118,6024
-0.499,10993
0.403,424
-0.0246,6255
-0.494,11000
-0.0498,4958
0.0834,3368
-0.255,9330
0.964,1
0.00682,5028
-0.25,10721
-0.173,8515
-0.11,8727
0.0298,4570
0.206,1559
0.0946,1604
0.0242,4530
-0.516,10964
0.303,1114
0.00687,5157
-0.171,8927
-0.00667,5763
-0.0918,7957
-0.202,9119
0.353,692
0.232,785
-0.0737,6552
-0.00555,5584
0.0556,3318
0.906,175
0.0663,4096
0.698,2094
0.158,2751
0.195,855
0.3,240
-0.404,10575
0.394,729
0.0546,3302
0.0514,4448
-0.0774,7851
0.0106,4777
-0.584,8596
-0.0653,6642
0.0818,2430
-0.455,10903
0.173,2310
0.118,2484
-0.992,9457
0.193,2624
-0.107,7960
-0.498,10191
-0.0688,6725
0.0184,4892
0.0982,3893
0.112,2093
-0.13,6968
-0.0706,7678
0.163,1260
0.18,1551
-0.227,9154
0.0239,4364
0.21,3182
-0.412,10626
-0.137,7526
0.00308,5139
-0.234,9275
0.0575,4433
-0.366,6708
0.01,5074
-0.111,9534
0.329,893
-0.0408,5758
0.225,3033
-0.0961,6522
-0.182,10247
0.221,1320
-0.139,9462
-0.0645,6097
0.00786,4972
0.324,2773
-0.251,8413
0.149,1091
0.449,38
-0.00696,5449
-0.0693,8191
0.534,1183
0.134,2694
0.132,991
0.179,1169
0.352,2242
-0.335,10317
-0.0114,4591
-0.0789,6605
-0.137,9128
0.0664,2321
-0.393,10838
0.0396,4045
0.00776,4952
0.112,2204
-0.182,9834
-0.0585,7537
-0.0226,5419
0.00384,5149
0.0361,4539
0.152,2321
0.0718,3172
-0.0937,8785
-0.137,7796
0.422,550
0.233,2493
-0.338,9815
0.000719,5511
0.0754,1756
-0.235,9976
-0.332,8450
-0.0969,6326
-0.372,10775
-0.0512,6579
-0.0492,8059
-0.228,9825
-0.0233,5579
0.00844,4990
0.347,475
0.377,239
0.0695,2572
-0.0712,6114
-0.0178,5688
-0.188,8962
-0.037,6300
0.0722,3508
-0.0307,6038
0.0984,2589
0.115,947
-0.294,10330
0.188,2935
0.0313,4167
-0.142,7932
-0.0561,6855
0.029,4684
0.136,3278
0.0505,4101
-0.105,9031
0.199,1543
0.171,1663
0.0415,4720
-0.043,6298
0.633,1622
-0.194,9791
0.0112,4980
0.647,279
0.715,600
-0.286,9946
0.298,499
-0.199,9930
0.135,1304
-0.0509,7448
0.116,2539
0.0661,4119
0.0568,3817
0.181,981
-0.0158,5736
-0.0772,7338
0.0708,2664
0.0872,4125
0.215,1515
-0.035,7036
-0.152,9791
-0.0585,6694
0.173,2248
0.14,2673
-0.097,7834
-0.00589,5399
-0.111,8488
-0.0888,8175
0.246,1116
-0.362,10366
0.335,1408
-0.00986,5501
-0.0822,8472
-0.262,9461
0.602,1824
0.0867,2650
-0.101,7847
-0.0132,5510
-0.179,8678
-0.13,8278
-0.0443,7174
0.0154,5016
-0.0393,6795
-0.0952,8647
-0.0234,6762
0.0914,1439
0.191,691
-0.0567,7323
0.22,603
0.0914,3101
-0.184,8197
-0.0859,7792
0.0134,4841
0.294,538
0.271,994
0.0582,3554
0.167,491
0.295,2151
-0.138,8311
0.0614,2718
0.297,529
-0.243,7506
-0.091,7128
-0.111,8153
0.0302,4662
0.0813,3193
-1.12,10807
0.087,3020
0.273,1502
0.127,2098
-0.00496,5705
-0.382,8826
-0.0377,6042
0.461,307
0.274,1359
0.0728,3648
0.0763,3126
0.112,3176
-0.151,8789
0.0735,3902
-0.108,9644
0.109,3295
0.436,570
0.139,3430
-0.086,5970
-0.0781,7323
0.0161,4791
-0.0536,6601
0.0103,4971
0.0542,4415
-0.593,10346
-0.192,9225
-0.225,10378
-0.0254,6506
0.119,3307
-0.0191,5952
-0.0758,5975
-0.103,9076
-0.114,10289
0.0539,4388
0.0663,3769
-0.0563,6976
-0.0551,6827
-0.00423,5488
-0.278,9427
-0.126,6937
0.094,2604
0.105,3149
0.142,2136
-0.219,10579
0.527,106
0.413,494
-0.171,8167
-0.0822,6120
-0.188,7190
-0.162,9973
0.0163,4843
-0.0789,7848
0.273,1972
0.0494,4094
0.146,3039
0.0295,4414
-0.572,11017
0.0669,3490
0.0908,3138
0.154,1113
-0.108,8196
-0.0483,6878
0.127,2615
-0.178,8773
0.173,1910
0.423,1129
0.26,2181
0.294,151
-0.0651,8582
0.0693,3524
0.0919,3596
-0.193,8882
-0.102,5804
-0.115,8951
0.16,1785
-0.229,9963
-0.133,6944
-0.105,7477
-0.233,9184
0.118,287
0.0237,4926
-0.319,10760
-0.348,10704
-0.116,8213
-0.125,9730
-0.126,9245
-0.043,6568
-0.168,7882
-0.419,10203
0.000805,5149
-0.0205,5625
0.018,4870
0.00987,5110
0.129,2874
-0.138,8859
-0.147,7541
0.0799,3748
0.108,2555
-0.139,9600
0.479,128
0.136,3079
-0.376,6534
0.344,571
0.0371,4295
0.292,935
0.104,3119
-0.0411,5727
-0.674,8561
-0.204,8351
-0.133,10194
0.185,1226
0.318,729
-0.165,8846
0.156,3210
0.208,997
-0.135,9166
0.0105,5395
0.747,121
0.0754,3925
0.342,793
0.0737,3294
-0.136,9808
0.00461,5087
-0.367,9851
0.0114,5015
-0.223,10279
0.227,3199
-0.0293,6333
0.469,61
0.00375,5266
0.0233,4570
-0.052,6619
0.529,1093
0.176,3246
0.374,230
0.534,843
0.116,2345
-0.23,7295
0.305,964
-0.15,10033
-0.429,10901
0.102,2414
0.118,2953
-0.106,6325
-0.401,8506
-0.101,9424
-0.135,9459
0.0192,5026
0.406,1439
-0.33,9689
-0.343,10924
0.076,2417
-0.117,9369
0.00362,5233
-0.139,8540
0.064,4509
0.0341,4259
-0.367,10870
-0.00993,5351
-0.109,8765
-0.533,10965
0.209,1540
0.0416,4480
-0.0532,6608
-0.00822,5887
-0.128,6609
-0.118,8747
-0.185,9496
-0.000418,5243
0.498,177
0.15,2387
0.0138,4726
0.694,2
0.156,2145
0.0483,4620
-0.119,8926
0.246,2038
-0.122,8181
-0.0636,7694
0.0237,4814
0.0409,4305
0.0541,2427
-0.0667,8320
-0.114,7352
0.0954,3316
-0.358,10501
-0.0412,7150
0.0628,4015
0.167,1957
0.728,2115
-0.0912,6911
-0.114,6576
-0.255,8849
0.0234,4598
0.0414,4042
-0.0066,5320
-0.23,9285
-0.118,8752
0.24,2132
-0.0344,6318
0.21,7
-0.608,10854
-0.0693,7044
1.07,1047
-0.149,9365
0.356,338
-0.185,10416
0.131,3143
-0.146,7878
-0.444,10932
0.076,3581
0.0124,4742
-0.112,8970
-0.407,9449
-0.0893,6982
-0.121,7924
-0.224,4527
-0.358,9896
0.16,1284
-0.0331,6254
-0.438,10876
-0.841,10140
-0.489,10899
-0.0084,5348
0.0815,2272
0.132,1240
0.0332,4355
-0.0265,6092
0.0294,4420
0.0927,2550
-0.0242,5912
-0.143,8444
-0.11,6359
0.397,1240
-0.135,8414
-0.105,8153
-0.0458,6729
0.0232,4789
0.626,113
0.0255,4526
0.424,474
-0.195,10346
0.0282,4659
-0.163,8772
0.0189,4513
0.261,1845
-0.157,7502
0.0196,4443
-0.0412,7340
-0.188,9318
-0.171,9121
-0.133,8509
-0.0162,5553
0.153,585
0.0207,4532
-0.00936,5487
0.372,1200
-0.0562,5741
0.261,725
0.0184,4647
-0.0952,8751
-0.107,6710
0.25,1822
0.367,999
0.198,3442
-0.0597,8469
0.0303,4079
0.103,3740
0.0626,3532
0.892,589
-0.224,10224
0.0441,3796
0.127,1086
0.0462,4475
0.124,1105
0.214,2586
0.113,3139
0.237,1477
0.0376,3902
0.141,2363
0.0236,4518
0.0943,2681
-0.131,5770
0.0654,3832
-0.000558,5406
0.326,897
-0.188,8453
0.155,2242
-0.694,10862
0.0736,3186
-0.0251,5984
-0.313,7479
0.0127,3731
0.0024,5492
0.131,3270
0.133,3196
-0.47,10209
0.192,2078
0.0727,2981
-0.136,9049
0.0342,4564
0.417,1242
-0.103,6256
0.147,3005
-0.186,10879
-0.114,9392
-0.0064,5433
-0.0618,7519
0.0966,2583
0.418,92
0.0446,3261
-0.0283,6506
-0.306,10097
-0.195,9038
0.0943,3903
0.0334,4473
-0.00559,5617
0.151,859
0.115,3397
0.393,317
-0.0357,5980
0.183,2432
0.275,864
-0.0473,6822
-0.45,9470
0.2,2805
-0.184,10035
-0.0915,7030
-0.0239,6166
-0.104,8865
-0.405,8827
-0.111,7966
-0.119,6964
-0.0897,9612
0.00355,5363
-0.0296,6848
-0.423,6691
-0.168,5809
0.0239,4528
-0.0805,6086
-0.0104,6054
-0.113,8723
-0.794,10194
-0.158,6394
1.2,1424
-0.399,9643
0.187,3426
0.194,3366
-0.195,9437
0.11,3252
0.00714,4967
0.055,3004
0.0893,3857
0.679,808
0.341,2074
-0.489,9117
0.0821,3947
-0.185,9133
-0.0213,6082
-0.0877,7232
0.242,1535
-0.174,8929
-0.151,8508
-0.0161,5799
0.314,1335
-0.114,7902
0.0253,4965
-0.0548,8057
0.0005,5533
0.302,884
0.148,1979
-0.0475,7069
-0.03,6143
0.0495,4190
-0.341,10992
-0.0727,8891
-0.228,5306
-0.242,8945
-0.299,9539
-0.232,8602
-0.0773,6880
0.136,2877
-0.6,9252
0.126,3303
0.24,1394
0.0686,4042
0.0411,3417
-0.0094,5508
-0.216,7585
-0.68,8252
-0.183,8130
-0.057,8605
0.053,1136
0.104,3324
0.0215,4928
0.271,1737
0.44,82
0.187,807
-0.13,8160
0.15,1947
-0.146,8427
-0.173,9169
-0.294,10079
-0.135,8402
0.0276,4147
0.0701,4341
0.29,1161
-0.049,5944
0.124,1571
0.296,257
0.41,329
-0.229,10122
0.0806,3165
-0.132,7166
0.324,1415
0.529,500
0.0706,2730
0.0461,4545
0.0289,4578
-0.125,8346
0.0257,4359
-0.0836,8941
-0.117,9139
-0.469,10741
-0.00419,5331
0.181,878
-0.554,10072
-0.00941,5782
-0.137,9273
-0.21,8321
0.32,1087
-0.192,8958
-0.0598,6741
0.0231,4708
-0.23,9019
-0.147,8058
-0.0984,6930
0.13,2900
0.0743,1875
0.12,1567
-0.0771,7831
-0.24,7875
0.183,1494
0.403,424
-0.0663,8544
0.0295,4642
0.137,1079
0.17,1044
0.0636,4065
-0.164,8918
0.0429,4296
-0.0387,6430
0.0844,2111
-0.0802,7902
0.00167,5051
0.168,2602
0.0538,4252
-0.0623,7261
-0.129,8916
-0.145,8877
-0.198,9569
-0.128,8028
-0.295,10709
0.0587,3478
0.138,2001
-0.0878,7122
-0.117,8011
-0.15,8512
0.121,2348
0.397,211
0.0276,3977
0.0947,2719
-0.174,9031
0.1,2133
-0.16,9654
0.16,1163
0.277,1689
0.138,2433
0.012,4912
0.936,1683
0.00067,5484
-0.261,10244
-0.207,10266
-0.864,10345
-0.153,7596
-0.113,7303
-0.0817,7845
-0.111,8974
0.192,1481
0.0404,4071
-0.0991,7466
-0.164,9277
-0.0993,8109
-0.0164,6084
0.0843,4024
0.0894,2674
-0.268,9810
0.168,2022
0.224,1879
0.109,1624
-0.101,8122
0.175,1857
-0.0489,6993
-0.759,10962
0.056,3998
0.00552,5380
-0.105,6553
0.282,2087
0.429,1636
-0.104,8366
-0.135,7880
0.267,1115
-0.00948,5622
-0.0428,5887
0.175,2763
-0.106,8080
-0.166,9827
-0.0863,8116
0.112,2989
0.159,1455
-0.102,8288
0.0103,5090
0.0955,3171
-0.0372,6317
-0.455,11029
0.00296,5151
-0.011,5719
-0.165,9659
-0.28,10359
0.021,4780
-0.0727,7512
0.192,1871
0.00988,5153
0.0812,1751
0.0775,1316
0.416,194
-0.0781,7523
-0.0792,7176
0.589,746
0.0152,4879
-0.177,9124
0.21,2167
-0.254,9787
-0.0389,6367
0.188,2028
-0.0132,5817
-0.0311,5992
-0.304,10414
-0.199,7842
-0.852,10270
0.246,1623
-0.0732,6420
0.00378,5132
-0.188,9537
0.364,2289
-0.266,9848
-0.0286,6128
-0.0102,6260
-0.12,10394
-0.202,8302
-0.16,10315
-0.063,7075
0.0882,2544
0.13,1436
0.0649,3584
-0.194,9614
-0.00582,5467
0.0152,4816
0.0198,4832
0.224,439
0.0485,3579
-0.279,10478
-0.0072,5457
-0.162,8181
-0.0465,7239
-0.102,7049
-0.136,9412
-0.256,10432
0.0614,3476
-0.39,9068
-0.0492,6193
-0.241,10686
0.325,319
0.357,559
0.356,348
0.0759,4036
0.153,2274
-0.131,9342
-0.137,9981
0.0934,3282
0.74,543
-0.115,8323
-0.103,8056
-0.0822,9603
0.529,12
0.008,4967
-0.0259,5938
-0.0354,6154
-0.089,6923
-0.0746,7440
-0.169,9015
-0.223,9933
-0.0178,6002
0.43,1175
0.863,1208
-0.0769,7839
-0.19,10707
0.216,1661
0.0137,4559
0.459,476
0.256,957
0.034,4401
0.0843,1614
0.0304,4895
-0.0175,5766
0.0637,4019
-0.134,9151
0.0425,4239
-0.0989,8589
0.342,777
-0.138,8677
0.287,1269
-0.414,7947
0.147,1897
0.0415,4589
0.125,3337
-0.0198,6038
-0.134,8797
0.282,579
-0.0119,5917
0.0833,2262
0.235,1497
0.316,326
0.15,2394
0.267,1048
0.0452,3770
0.118,2314
-0.0113,5591
-0.199,10213
0.194,2573
0.223,690
0.396,592
-0.0933,7250
-0.0362,6555
-0.514,9720
0.203,1799
0.0143,4948
0.0444,4091
0.0126,4926
-0.125,8432
-0.0853,5731
-0.101,7679
0.0359,3597
0.118,1805
-0.0162,5832
-0.0164,6330
-0.1,8889
-0.455,10124
-0.0843,7824
-0.0205,5722
-0.118,8778
-0.225,8637
0.235,2640
-0.112,6816
-0.0641,8568
0.0478,3994
0.118,2978
-0.232,9530
-0.386,9867
-0.159,10023
-0.073,7856
0.0684,3091
-0.123,7456
-0.00651,5565
0.542,226
0.555,688
0.0415,4375
-0.121,8516
0.184,3185
0.241,805
-0.226,9877
-0.617,10378
-0.173,8885
-0.374,10631
0.178,2747
-0.201,9828
-0.295,10322
0.175,2744
-0.114,8648
0.0439,4185
-0.204,10011
0.359,579
-0.0863,6887
0.234,2106
0.237,1061
-0.157,9954
-0.0775,6969
-0.0334,5221
0.0197,4729
0.0588,4275
-0.0607,7549
0.106,2225
-0.114,8645
-0.0655,6412
0.0604,3163
0.208,1728
-0.131,7613
0.146,1247
0.0329,4665
0.329,724
0.385,234
-0.207,8595
-0.166,10706
-0.0239,6366
0.17,1928
0.0776,3169
1.11,816
0.213,2344
-0.338,10157
-0.0681,8044
0.0543,3645
-0.143,7627
-0.135,7878
-0.325,10415
-0.0625,7582
0.0566,2767
0.244,1724
0.0173,4580
-0.022,5694
0.00921,5034
-0.0711,6866
-0.209,10117
0.0581,4048
-0.141,8309
-0.13,7631
-0.0195,5668
0.18,1535
-0.0677,8469
0.0298,4521
-0.297,9375
-0.00316,5240
0.848,927
-0.0436,7938
0.0544,3710
0.075,4086
-0.146,9691
-0.273,8175
0.0902,3303
-0.011,5918
-0.0806,8060
-0.0982,7561
0.165,2955
0.612,348
-0.0219,5367
-0.000926,5570
-0.059,6844
-0.63,8177
0.103,2111
-0.158,9880
-0.0339,6167
-0.185,10856
0.0662,2607
0.0451,4156
0.0869,3423
-0.199,7464
-0.0673,7694
-0.208,9830
-0.178,9001
0.108,3651
-0.0137,5639
0.0588,3515
-0.268,10120
-0.169,10151
0.0513,3742
0.529,1844
0.0833,2875
0.031,4220
0.343,1004
0.227,367
0.053,2614
-0.481,8473
0.937,1666
-0.01,5573
0.0783,3712
-0.188,9427
0.243,383
0.0271,4744
-0.185,9064
-0.158,8280
0.1,1572
-0.0384,7648
-0.167,9242
0.232,1916
0.48,1424
0.0839,3687
0.693,336
-0.113,7392
0.282,1164
0.0153,4530
-0.048,6932
-0.116,8060
0.192,1221
-0.00765,6039
0.0565,3384
-0.186,8216
-0.00744,5504
-0.552,10025
0.00316,5129
-0.0456,6644
0.0193,4716
-0.0831,7322
0.419,541
0.586,496
0.08,4059
0.126,2711
0.0896,4019
0.0808,2914
0.343,888
-0.273,10181
-0.241,7475
-0.039,6235
0.0318,4222
0.081,3276
0.367,554
-0.106,8747
-0.413,10806
0.0775,3229
0.0654,3543
0.304,323
-0.164,8656
0.0344,4385
-0.415,10591
-1.14,10996
-0.146,7564
-0.0206,5895
0.207,1558
0.127,1918
0.319,1412
-0.135,9384
0.119,1467
0.0159,3023
0.118,3426
0.245,1959
-0.172,7713
-0.0863,7166
-0.0957,7863
0.137,2001
-0.156,9961
0.16,1620
-0.242,9429
-0.0235,5286
0.089,1892
0.131,2293
0.0906,2839
0.203,965
-0.439,10971
-0.101,6908
-0.044,8391
0.0211,4663
0.0502,4064
0.271,75
0.00719,5228
0.154,3369
0.0833,3576
-0.326,10849
-0.603,10999
0.0821,3624
0.0401,4006
-0.0519,6732
0.211,1169
-0.115,8168
0.365,487
0.307,786
-0.16,9704
-0.18,10188
-0.062,6401
-0.0915,5677
0.0706,4138
-0.0403,6440
0.162,1326
0.0652,2469
0.0908,4083
-0.245,10016
-0.288,9381
-0.215,9665
0.106,2012
-0.103,7957
0.0318,4082
-0.0638,7347
-0.455,11009
-0.0157,5406
0.0361,4265
0.134,346
0.0227,4831
0.354,994
-0.245,9728
-0.182,7121
0.0463,4007
0.0721,3217
-0.195,9181
-0.0813,7775
-0.143,6691
0.0192,5057
-0.192,10139
0.0309,4544
-0.515,7731
0.117,2224
-0.201,7604
-0.501,10987
-0.269,10965
-0.184,9845
-0.045,6762
0.622,138
0.0639,4162
0.0131,4949
0.114,1687
-0.0559,7265
-0.00467,5460
0.145,2643
-0.687,10776
-0.18,10002
0.237,1764
0.0913,3009
-0.165,10233
0.0108,4785
-0.207,10032
0.13,2627
0.0339,3899
-0.0831,6733
0.0673,3164
0.239,1142
0.143,2339
-0.244,10079
-0.148,8830
0.599,421
-0.28,10832
0.0581,4449
0.0901,3503
-0.136,8249
-0.145,9900
0.25,210
0.146,2833
0.0459,4214
-0.0803,7122
-0.0177,6024
0.166,1788
-0.0352,7304
0.111,3544
0.212,810
0.284,764
-0.322,9734
0.129,2520
-0.323,10791
-0.042,6306
-0.322,10586
0.352,1588
-0.126,8576
-0.256,11004
-0.294,10260
0.503,342
-0.104,8771
-0.189,8995
-0.00509,5509
0.235,1712
-0.114,8525
-0.0452,6424
0.216,2835
-0.156,6646
0.152,1529
0.0462,3469
0.0365,4418
0.162,2184
0.109,2477
0.0785,4102
-0.302,8910
-0.102,8601
0.0646,3007
-0.16,7903
0.2,2239
-0.146,8662
-0.274,10692
-0.103,8126
0.468,144
-0.259,10666
0.122,3136
-0.118,8031
0.0363,4632
-0.0143,6036
0.00536,5195
-0.433,10906
-0.195,10269
-0.358,10081
0.0869,3884
-0.00502,5338
-0.16,9775
0.0483,4146
0.0199,5045
-0.0102,5656
-0.217,10469
-0.275,9041
0.272,603
0.0455,4228
0.118,2927
0.484,61
-0.179,8805
-0.0428,7195
0.075,2875
0.0604,3788
-0.203,8119
-0.325,9027
0.442,69
-0.0562,7415
0.0397,4157
0.11,2420
-0.16,7956
0.0399,4241
-0.0979,7393
0.116,3005
0.0558,3231
-0.202,7649
-0.164,7950
-0.00868,5662
-0.108,6547
0.000724,5507
0.0842,2421
-0.00405,5306
0.268,750
0.0386,4172
-0.0402,6514
-0.0784,7553
-0.0265,5527
0.202,762
0.45,332
0.209,3070
0.128,1342
0.0425,4164
-0.13,8984
-0.0631,7140
0.0582,3995
-0.213,8210
0.315,1531
0.183,1346
0.0278,4719
0.122,3175
0.295,1087
-0.0834,8426
-0.264,10586
0.0566,2837
0.0423,3635
0.358,1040
0.384,1985
-0.0443,6007
-0.0935,7399
0.0352,4182
0.0797,2574
0.00648,5139
0.147,1664
0.354,1711
-0.362,10479
0.0873,3371
-0.0551,7609
0.158,2380
-0.00621,5389
0.205,3356
-0.0908,6799
-0.032,6928
0.22,942
0.182,773
0.385,555
-0.202,10843
-0.181,9428
0.0535,3968
-0.101,7757
-0.045,6608
0.163,2899
0.144,1873
-0.056,6887
-0.057,7622
0.043,4126
-0.0901,8180
0.589,872
0.427,1424
0.0461,4257
-0.231,10089
0.193,1230
-0.123,7296
-0.146,7611
0.28,1375
0.259,1720
-0.132,8894
-0.0447,6108
-0.0908,7012
-0.107,8407
-0.0265,5879
0.596,489
0.0457,3196
0.137,457
0.0723,3444
-0.323,10251
0.244,722
0.247,512
0.162,1323
0.0464,4100
0.111,2477
0.0978,3415
-0.0742,5425
0.17,3187
0.256,743
-0.0706,7271
-0.192,10422
0.296,536
-0.075,6967
-0.221,10133
-0.128,9924
-0.0205,6291
-0.0385,6038
-0.227,10480
0.566,376
-0.00722,5582
0.147,1354
0.104,2817
-0.215,9620
0.131,2707
-0.281,8055
-0.116,6242
-4.46e-05,5235
-0.00452,5812
-0.284,10649
0.0472,3989
-0.0903,7582
0.297,2142
0.0302,4559
-0.157,9590
0.606,602
-0.103,6998
-0.0507,5995
0.137,2348
-0.231,10259
-0.0805,8361
-0.0171,5766
-0.195,8326
-0.0468,6309
-0.11,7048
0.0251,4289
-0.0906,9140
0.406,1434
-0.28,10268
-0.00878,5213
0.144,1943
0.105,2091
0.115,2099
0.0101,5282
-0.155,8772
0.215,1477
-0.201,7479
-0.124,7908
-0.122,9123
0.329,270
0.121,3278
-0.251,10726
0.0222,3855
0.111,1700
-0.087,8453
-0.0283,6231
-0.737,11015
-0.274,10258
0.0093,5056
-0.577,11006
0.0882,3348
-0.0466,6497
-0.0883,7831
-0.176,7927
-0.0711,5890
-0.0896,7806
-0.0459,8041
0.0869,3222
0.23,1113
-0.14,7104
0.271,692
0.0151,4800
-0.128,9705
0.406,856
-0.0966,7365
-0.226,7385
-0.261,9023
0.169,1003
-0.0762,8158
-0.000657,5209
0.0979,3786
0.187,1362
0.105,2309
0.109,3143
0.0383,3978
0.293,668
-0.0071,5898
-0.165,9094
-0.397,10469
-0.178,8759
-0.222,10067
-0.235,10383
0.437,474
-0.193,8918
-0.101,7720
-0.00248,5177
0.157,2967
0.569,364
0.29,1223
-0.181,9953
-0.166,9952
0.0676,2595
-0.168,10474
-0.221,9542
-0.283,8840
0.266,1005
0.155,2409
0.0171,4599
0.109,2180
0.0592,4316
-0.222,9884
-0.17,8476
0.0298,4753
0.175,2334
-0.0607,8139
-0.0291,6234
-0.414,10171
-0.389,10540
0.0124,4989
-0.198,8451
0.0409,4130
-0.159,9318
-0.139,7203
-0.368,9823
-0.222,10227
-0.0771,7473
-0.249,10803
0.079,3709
0.0349,4392
0.213,1840
0.0236,4749
-0.0844,7639
0.00667,5139
-0.0306,6082
-0.385,10532
-0.277,9918
0.141,3256
0.0418,3208
0.0448,3619
-0.212,10944
-0.39,10248
-0.411,10570
-0.0752,6615
0.0346,4366
-0.0111,5596
0.206,1844
0.0585,3495
0.0738,2383
0.103,1889
0.0763,2981
-0.0136,5446
0.0203,4872
0.278,1800
-0.703,11022
0.0932,2575
-0.0816,9383
0.243,1067
0.276,535
-0.061,7405
-0.224,7830
0.14,1366
-0.0498,7031
0.252,521
-0.0697,6832
0.11,3558
-0.413,9358
0.675,95
0.0367,4098
0.184,2556
0.133,2088
-0.354,10290
-0.268,7630
-0.0446,7846
0.177,962
0.0191,4700
0.0869,3407
0.366,438
-0.18,9921
-0.02,6514
-0.158,10154
0.149,2159
-0.26,8612
-0.311,7529
-0.133,8241
0.0561,1448
-0.0641,8108
-0.222,9869
0.0715,2779
1.24,726
-0.265,8558
0.0382,4448
0.0448,3998
0.0646,3648
-0.0393,6406
-0.0351,6466
-0.106,6174
0.203,876
-0.0426,7321
-0.175,8791
-0.0117,5482
0.677,756
-0.0195,5744
0.165,1997
0.0658,4531
0.135,2730
0.124,2476
-0.303,10495
-0.381,10939
-0.0232,6347
0.0192,4751
0.0224,4806
-0.121,7895
-0.286,9948
0.213,1973
0.00335,5303
0.0345,4123
-0.0851,8499
-0.213,7505
-0.125,5730
-0.57,10831
0.12,1987
-0.0237,6894
0.279,660
0.04,4473
0.114,3880
0.0371,4006
-0.0469,5954
0.0369,4528
0.241,885
0.0207,4936
0.0172,4538
0.0554,3656
0.0634,2729
0.108,1566
0.666,2203
-0.269,4932
0.138,2231
-0.0567,6097
-0.336,10966
0.473,21
-0.106,6103
-0.243,8261
0.312,1519
0.162,2802
0.116,1689
0.361,298
0.0698,3849
-0.213,8897
-0.287,8942
-0.165,8576
-0.251,10272
-0.0888,7053
0.195,314
0.136,1791
-0.213,10563
0.157,1525
0.00617,5036
0.152,1057
-0.28,9550
-0.339,8863
0.294,1514
0.384,1007
-0.0808,7959
0.0647,3680
-0.395,10849
-0.0145,5269
0.395,1069
0.181,2363
0.0315,3639
0.168,1531
0.25,1575
0.0989,2670
0.166,3769
-0.0327,6201
-0.0971,7773
-0.288,10302
0.295,853
-0.158,10229
-0.265,9547
-0.418,10016
0.0305,4008
-0.0708,7653
-0.299,9908
0.201,2552
-0.183,10062
-0.128,6567
-0.000475,5351
-0.105,8531
-0.448,10926
-0.0528,6390
-0.162,8712
-0.828,10445
-0.000272,5410
0.153,1995
0.354,1516
0.0863,3090
0.152,2481
-0.664,11019
-0.121,9747
0.121,2242
-0.0657,7204
-0.273,10116
0.201,1972
-0.0276,5610
0.243,1709
-0.0842,7017
0.159,2467
0.905,1122
-0.0669,6279
-1.06,10724
0.171,1928
-0.0251,6829
-0.699,8133
-0.269,9100
0.0633,2099
0.329,1200
0.119,2077
0.00594,5118
0.244,988
-0.0706,6048
-0.21,9323
-0.202,8072
-0.0088,5744
-0.111,8708
0.0376,3971
0.0527,4568
-0.0436,6205
0.231,1990
0.245,901
-0.102,8478
0.458,489
-0.219,8709
0.0506,4264
-0.297,10125
0.0361,4677
-0.0769,8634
-0.00123,5496
-0.101,7589
0.128,3605
-0.238,6508
-0.229,10118
0.173,195
-0.0747,7421
-0.0497,6331
-0.427,10383
-0.115,7629
-0.0427,6728
0.209,1900
0.4,830
-0.14,7405
0.0471,4189
0.103,2411
-0.04,6557
-0.107,8249
0.016,5144
-0.12,9950
0.0905,3603
-0.00806,5421
-0.062,6934
0.137,1697
0.2,1956
0.545,107
-0.0229,5648
-0.0621,6261
-0.0429,6604
-0.176,9173
-0.357,10934
0.0771,3635
-0.0827,6347
-0.129,8689
-0.0395,6900
-0.0857,8012
0.171,1679
-0.138,8955
-0.102,8263
-0.0168,5030
0.102,1872
0.106,3041
0.149,2076
0.023,4795
-0.224,8077
-0.0803,6214
-0.0419,7098
0.153,1525
-0.0405,6965
-0.0627,6113
-0.419,10361
-0.254,10462
0.0669,4076
-0.0832,8702
0.137,2067
-0.249,10437
-0.24,7833
0.0182,4631
-0.0197,5961
-0.025,6235
-0.0117,5787
-0.308,9651
0.453,363
0.784,745
-0.0646,8214
-0.139,8558
0.0293,4447
-0.0888,7138
-0.00102,5439
0.181,736
0.0932,3172
-0.129,9531
-0.041,6763
-0.11,8676
0.268,1921
-0.148,8400
-0.034,6098
-0.276,9559
-0.0442,5545
0.239,1957
-0.134,9091
0.165,1491
0.0386,4339
0.535,879
0.0727,1608
-0.386,10892
0.00538,5263
0.22,8
0.152,2335
0.0533,3715
-0.109,7388
-0.0557,7063
0.00974,4980
-0.133,8294
-0.00288,5288
-0.172,8710
0.0115,4740
0.0121,5144
-0.157,8892
-0.0214,6167
-0.601,10694
-0.166,9143
-0.225,9164
0.00294,5150
-0.0208,6370
-0.0504,7280
0.0205,4906
-0.22,10422
0.0339,4557
0.0609,2754
0.0397,3872
0.00601,5013
0.0142,4937
0.299,927
0.0748,2736
-0.0879,8052
-0.0684,7447
0.0928,3385
-0.0866,7951
-0.0229,5678
-0.758,10900
-0.417,10975
-0.104,9985
-0.278,10709
0.0104,5068
-0.12,7391
0.238,1653
0.0769,2368
-0.0336,6659
0.00188,5302
-0.24,8361
0.203,2287
-0.225,9642
0.0563,3903
0.162,811
-0.0344,6215
-0.13,8237
-0.000977,5456
-0.0524,6709
-0.0494,7221
0.139,2135
0.36,490
0.319,651
0.065,3476
0.237,1712
0.00622,5175
-0.13,9171
0.00113,5624
-0.208,10072
-0.274,10404
-0.137,7281
-0.085,8527
-0.00441,5302
-0.0591,6511
0.163,1821
0.363,279
0.165,1048
0.282,618
0.12,2054
-0.641,10658
0.112,2727
-0.0114,5534
0.24,2125
-0.226,9940
-0.163,9916
0.0624,3854
0.487,110
0.38,1951
0.036,4239
0.0639,3918
0.00511,5378
-0.285,10712
0.208,1937
0.157,2473
-0.186,9370
-0.101,8303
-0.0588,6742
0.397,335
-0.202,8691
0.0648,3732
0.0376,4171
-0.0683,7338
0.145,3254
-0.255,10048
-0.0976,6613
-0.131,7295
-0.192,9281
0.432,262
0.171,2616
-0.0652,7360
-0.0101,5331
0.442,1280
-0.0151,6442
0.115,3159
-0.00547,5407
-0.518,10791
-0.0928,7024
0.0311,4501
0.103,2075
-0.0981,8565
0.403,677
0.00509,5265
-0.0322,5871
0.0634,3521
0.065,3908
0.28,701
-0.115,7049
0.213,1843
-0.0675,7176
-0.17,8732
0.357,541
-0.0381,5999
-0.0633,7033
-0.511,10962
-0.13,7896
0.178,2370
-0.154,9823
0.1,3007
0.00352,5344
-0.161,9207
0.0513,3487
0.0193,4726
-0.00218,5476
-0.207,10649
-0.162,10057
-0.0285,6065
0.0693,2488
0.449,315
-0.0431,6841
0.153,464
0.134,2298
-0.508,10973
0.696,501
0.18,2234
0.444,80
-0.0708,9794
-0.303,10766
0.262,969
0.0684,3673
0.336,1254
-0.0721,6830
0.307,62
-0.0128,5742
-0.0263,6156
-0.0956,6583
0.0617,3950
0.0045,5116
0.195,1676
0.355,329
0.0843,4020
-0.0497,7423
0.314,1818
0.00884,4981
0.14,748
-0.251,8748
0.725,254
-0.102,7084
0.362,2253
-0.25,10322
-0.294,10561
-0.52,10779
0.0885,3296
0.0409,4423
-0.256,8879
-0.0319,6783
-0.0279,6292
0.0646,3552
0.217,1008
-0.396,10205
0.0704,4452
-0.0977,7040
-0.0328,6768
0.246,813
-0.118,8073
0.11,2819
0.128,1681
0.255,671
0.0451,4197
-0.0643,6701
0.137,1984
-0.0346,6498
-0.471,8525
-0.0172,6013
0.206,935
0.532,986
0.252,2602
-0.014,5531
-0.282,9711
0.031,4376
-0.0581,6707
-0.0236,5920
0.0447,4338
0.253,511
-0.114,8209
0.109,2123
-0.0797,9564
0.159,2339
-0.086,6642
-0.254,10028
-0.00547,5421
0.0869,2040
0.0903,2885
0.109,3791
0.417,731
0.0106,4863
0.0865,2895
-0.0672,7463
0.106,3374
0.187,1787
0.151,2165
-0.607,9862
0.0622,3563
-0.314,8756
-0.11,9317
0.143,1715
0.117,2913
0.27,729
0.163,2052
-0.0258,6546
0.054,4158
0.204,1717
0.374,353
-0.0603,6236
0.0526,4376
0.346,241
-0.177,9920
-0.168,8397
-0.0375,6416
0.0506,3570
0.0407,4237
-0.153,9297
-0.118,8442
-0.253,10947
-0.181,9832
0.138,991
-0.00698,5342
0.207,552
-0.0335,6668
0.0769,2393
0.0262,4590
0.0593,2672
-0.378,10569
-0.0114,5590
0.501,171
-0.0897,8012
-0.0305,6127
-0.0245,6216
-0.508,11034
0.13,1484
-0.21,10917
-0.232,10186
-0.277,10686
0.52,546
0.863,340
0.0165,4481
0.229,18
0.132,2093
0.00976,4990
0.12,2419
0.401,1065
-0.119,9316
-0.102,7878
0.247,1979
-0.0455,6147
0.105,3289
-0.176,8361
0.129,2982
-0.171,9723
-0.202,6433
0.361,2085
-0.0593,7000
-0.628,9429
0.351,746
-0.251,9011
-0.247,9655
-0.178,7177
-0.0674,7569
-0.0986,7191
0.0771,3595
0.273,771
-0.42,10403
0.169,2334
0.0705,2916
0.264,824
-0.0251,6171
-0.0772,7426
0.051,4169
0.276,865
-0.00612,5754
0.0804,2915
0.163,2165
-0.288,8427
0.0248,4461
0.109,992
0.0119,5026
0.0756,4069
0.287,980
0.261,2610
-0.578,10495
0.0786,675
0.0898,1044
-0.0364,5909
-0.0272,5623
-0.0431,6553
-0.0998,7366
0.139,2618
0.108,1973
0.0563,3796
-0.414,10761
0.191,842
0.115,3124
-0.114,8977
-0.105,9254
-0.091,8753
-0.158,8962
-0.182,9022
0.105,3207
-0.476,10351
-0.109,7280
-0.159,10308
0.0535,3729
0.294,2332
-0.115,8303
-0.211,9817
0.00607,5158
0.198,583
-0.0299,6707
-0.0495,6035
-0.133,9413
0.212,1702
0.117,1965
0.022,4461
0.104,2476
0.126,1737
0.253,2150
0.172,3310
-0.0995,8791
-0.409,10972
0.0501,4247
-0.0995,7639
0.17,1646
0.0116,5041
0.176,3272
-0.057,6701
0.294,749
-0.0287,6229
-0.351,9644
-0.238,9994
-0.0301,6658
0.00407,5255
0.256,2005
-0.04,6394
-0.0787,7420
-0.108,9407
-0.0085,5488
-0.301,10997
0.104,2400
0.36,625
0.43,82
0.523,897
0.014,5119
-0.0551,7106
0.192,2261
-0.199,9970
0.699,729
0.125,3811
-0.258,10676
0.0144,4781
0.162,1822
-0.0499,7004
0.227,1200
0.0143,4958
-0.201,8356
0.0359,4066
0.0382,3929
-0.0863,6965
0.411,136
-0.019,5611
0.221,1633
0.292,750
0.119,2565
-0.303,10566
0.142,2072
0.17,2336
0.0134,4666
0.225,2781
-0.0375,6332
0.0298,4340
0.229,1080
0.67,1704
0.0311,3958
0.0354,3902
0.666,220
-0.398,10366
0.0553,4207
-0.552,9005
-0.0797,7695
-0.0332,6445
0.168,1827
0.0497,3616
-0.0931,6648
-0.126,8524
-0.0142,5505
0.00549,5313
0.137,2343
0.592,559
-0.0591,6366
-0.12,9213
-0.151,8510
0.224,1699
0.0173,4824
0.0158,4890
-0.115,7700
-0.0969,7939
-0.195,8445
0.124,758
0.0416,4091
0.128,1423
0.41,1061
-0.171,7821
0.072,3134
-0.137,9799
0.0388,4231
-0.0313,6479
-0.0107,5315
0.0008,5288
-0.00808,5403
0.0579,1212
-0.0107,5745
-0.44,10896
0.378,1207
0.27,1533
-0.00125,5291
-0.0315,7855
0.037,4125
-0.191,9585
0.231,1296
-0.32,10888
-0.127,8056
-0.0619,6981
0.416,1838
0.212,1501
0.178,2374
0.0529,4329
0.597,328
0.0625,2810
0.0393,4347
-0.443,10838
-0.029,6511
-0.357,10386
-0.272,10375
0.0683,3182
-0.257,10277
0.0375,4311
-0.351,9029
-0.0185,5682
0.0114,4811
0.0683,2019
-0.254,9817
-0.0668,6782
0.0185,4689
-0.0349,6418
0.163,896
0.026,4227
-0.0426,6028
-0.0108,5749
0.254,1510
0.134,3149
0.207,2169
0.0715,2820
-0.221,10078
0.00117,5494
-0.685,10625
0.117,3256
0.113,3101
-0.0419,7183
-0.0216,5856
0.00607,5073
0.127,2828
-0.0969,7672
-0.0166,5695
-0.0878,7952
0.526,797
-0.0928,7529
-0.263,10145
-0.434,10861
-0.0186,6086
-0.211,10718
0.236,1461
0.426,640
-0.318,9826
0.0833,3227
0.0965,2240
0.0831,2602
0.183,3156
-0.0746,6492
0.189,2079
0.792,1743
0.0599,2572
-0.0558,7185
-0.405,7694
-0.0953,7812
0.0813,3998
-0.322,9737
-0.497,11005
-0.0527,6960
0.0289,4419
-0.41,11016
0.21,1424
0.0588,2938
-0.121,8690
-0.251,9625
-0.121,7576
0.0551,4020
0.234,2406
-0.233,9619
0.0736,2717
0.0633,3458
-0.262,10177
0.0405,3938
-0.17,7420
-0.184,6653
-0.0408,6669
-0.0811,6850
0.0179,4811
-0.0701,6518
-0.225,9642
-0.0672,8727
0.00486,5221
0.00275,5183
-0.307,10627
-0.0717,6212
-0.0959,8249
0.17,3030
-0.0341,6324
0.276,867
0.0117,4785
0.617,368
0.149,1900
-0.0362,5866
-0.155,7627
-0.263,10177
-0.0039,5380
0.0122,4135
0.25,1051
0.477,1310
-0.312,10962
0.208,155
0.501,248
-0.113,7923
0.249,1274
-0.245,4287
0.0562,2608
0.249,3063
-0.0402,6503
0.031,4570
-0.523,7323
-0.17,7173
0.173,931
0.122,2362
0.0145,4948
0.0875,2976
0.0683,3564
-0.207,8868
0.112,2873
0.0375,3856
-0.229,9641
0.119,3840
-0.471,8549
0.676,217
-0.0345,6840
0.0374,3844
0.801,405
0.68,493
-0.0134,5368
0.283,925
-0.206,10391
-0.0143,6054
-0.0188,6072
-0.299,10491
0.682,819
0.127,3359
-0.0307,6566
0.248,377
0.186,1875
0.278,1678
0.126,3026
0.0367,4297
-0.00963,5754
0.0272,4604
-0.395,10891
0.24,270
0.0564,3294
-0.0841,7682
0.0852,2714
-0.172,9402
-0.0429,5750
-0.0858,8070
-0.123,9123
-0.237,10283
-0.0306,6070
-0.497,10869
-0.0859,7444
0.016,4958
-0.0421,6840
0.0504,4327
0.199,1556
-0.0898,7319
-0.277,9981
0.074,3212
0.113,2662
-0.0528,6382
-0.0668,7205
0.0841,3855
0.416,418
-0.0883,8132
0.135,2394
-0.159,7645
-0.195,9720
0.129,2185
0.381,445
0.0685,3064
-0.0465,6674
-0.186,6227
0.0742,3555
0.0263,4682
-0.135,8800
-0.201,10985
0.025,4469
0.682,407
0.367,935
-0.124,9262
-0.0154,5436
0.291,561
-0.232,9855
-0.321,9770
-0.018,5596
-0.102,8365
0.0126,4939
-0.0338,5698
0.00793,5322
-0.00923,5851
0.0247,4354
0.0862,3458
-0.0299,6652
0.162,2509
0.282,24
-0.272,8271
-0.396,8777
0.12,3371
-0.00704,5508
0.144,2132
-0.202,10905
0.123,2266
0.0428,3559
0.243,846
0.375,992
0.104,2301
0.0466,2799
0.0143,4997
0.0216,4843
0.562,797
-0.138,6706
0.0361,4654
-0.0467,5609
-0.372,10785
-0.36,10854
-0.211,9126
0.0903,3081
0.252,380
-0.148,9715
0.114,2373
-0.0317,6033
0.0372,4584
-0.108,5951
0.042,4410
-0.184,9957
0.0525,3785
-0.133,8320
0.292,975
-0.169,8736
0.159,2397
-0.0533,7448
0.3,1509
0.0179,4915
0.00674,4957
0.0485,3959
0.0568,2166
0.0905,3814
0.307,246
-0.00609,5536
0.0505,4072
-0.037,5650
-0.121,9948
0.0239,4726
0.186,2777
-0.389,10210
0.257,1641
0.0742,4432
-0.11,9184
0.0916,3773
0.0193,4971
0.175,953
-0.0572,6837
0.186,2302
-0.0106,5742
-0.235,9679
0.0816,3416
-0.0392,5738
0.871,262
-0.0737,6584
-0.0419,6313
0.287,1284
0.0447,4226
-0.207,9538
0.394,689
0.425,360
0.121,2957
-0.116,9528
0.18,751
0.0765,3351
0.523,89
-0.127,7267
-0.0719,7924
0.082,2554
-0.282,10121
0.0612,4430
0.301,2684
-0.635,10606
0.0547,3605
-0.0507,6855
-0.333,10686
-0.0556,6438
-0.0668,6577
0.0278,3839
-0.286,10990
0.359,356
0.519,238
0.103,2424
-0.02,5672
-0.07,7854
-0.147,8472
0.119,2576
0.0483,3407
-0.0348,6075
0.205,2153
-0.49,10257
-0.0599,7575
-0.186,9850
0.0482,4354
0.39,1172
0.338,842
0.138,4103
0.091,2508
0.0284,3685
0.172,2394
-0.252,9089
0.334,603
0.0226,4419
-0.0442,6466
0.362,52
-0.273,10454
-0.00692,5253
-0.201,9821
0.259,1129
-0.262,9224
0.0132,5059
0.0172,4839
-0.142,9838
0.0916,3258
-0.293,8844
0.0361,3923
0.0216,4644
-0.188,9516
-0.0221,5645
-0.278,10943
-0.323,6970
0.0609,3433
0.117,2223
0.329,371
0.0529,3885
0.0488,4608
0.145,1739
-0.00773,5485
0.246,545
-1.24,9911
-0.239,9078
0.158,2464
0.135,3330
-0.132,8092
0.165,1514
0.33,857
-0.203,6117
-0.0573,7041
-0.0102,5798
0.136,661
-0.174,9287
-0.0303,6638
0.252,1045
-0.223,9327
-0.323,10594
0.129,2028
0.544,283
0.126,3744
-0.219,8611
-0.207,7937
0.144,1296
0.0159,4353
-0.0984,7734
0.202,1738
-0.116,6652
-0.283,10189
-0.0569,6963
0.147,529
-0.0614,6296
0.0499,3954
0.0596,3645
0.312,1497
0.00817,5143
0.0647,2687
0.231,1401
-0.15,8074
0.00663,5051
2.87,361
0.0602,3697
0.0468,3389
0.176,1509
0.0501,4135
0.172,2022
-0.116,9573
-0.0765,7990
0.15,772
-0.207,10017
-0.0826,6897
-0.202,9063
0.134,2532
-0.0601,6639
-0.132,10560
-0.12,9124
-0.137,7907
-0.00546,5417
-0.195,8435
0.0406,4011
0.163,1906
0.182,971
0.0464,4124
0.0239,4690
0.0684,2898
0.191,604
0.0965,2335
-0.042,6447
-0.263,10628
-0.159,9623
0.361,1849
-0.167,9342
0.0481,3040
0.288,661
-0.086,7339
0.318,1293
0.201,2273
-0.125,8198
0.0294,4587
-0.0193,5677
0.121,2827
-0.0982,8089
-0.0381,5912
-0.169,8440
-0.0316,6594
-0.143,8076
-0.665,10585
0.164,601
0.201,2149
-0.148,8651
0.263,2473
0.341,526
-0.111,8124
0.0853,2254
-0.144,8571
-0.214,9379
0.0819,3361
0.205,2361
-0.023,4719
-0.321,10053
0.12,1633
-0.0287,6323
-0.066,7478
-0.343,9070
0.411,1948
0.00323,5404
-0.075,8113
0.00326,5255
-0.0789,7008
-0.0814,5768
0.403,1103
0.242,2081
0.0756,3209
-0.153,8879
0.172,1785
0.112,2402
-0.168,8217
-0.0322,5847
-0.222,8522
0.00364,5132
0.0336,4479
0.144,3033
0.206,1942
0.0341,4415
-0.132,8075
-0.168,8589
-0.00616,5483
0.0162,4627
0.298,570
0.259,101
-0.253,10322
-0.0843,7639
0.163,2551
-0.314,7807
-0.0327,5770
-0.21,9446
-0.0504,6678
0.0146,4890
0.24,1351
0.00597,4944
-0.755,10915
-0.151,9628
-0.164,9133
0.195,2529
-0.0535,7235
0.223,961
0.00648,5105
0.061,2091
0.0509,4171
-0.127,6728
-0.301,8747
0.0831,1957
0.312,346
0.254,549
0.0729,2449
-0.194,10540
-0.12,8993
-0.0613,6672
-0.313,9704
-0.0518,6665
0.0343,3542
-0.0848,6517
-0.175,8400
0.0941,3257
-0.227,8758
0.187,1452
0.281,592
-0.186,8627
-0.0756,7359
0.0632,4150
0.216,2515
-0.152,9103
-0.187,9762
0.164,1921
0.137,3595
-0.447,8699
0.161,3296
-0.0186,5975
-0.117,7531
2.56,483
0.484,1536
0.0547,4288
-0.374,10591
-0.109,8012
0.00922,5115
0.194,653
0.558,780
0.00621,5206
-0.132,8580
0.0418,3555
0.19,1145
-0.0253,6322
-0.0751,7621
0.064,3637
0.273,1427
0.0035,5259
-0.0241,6787
-0.106,8521
0.122,3917
0.0805,3383
0.0608,4136
0.036,4227
0.0668,3088
-0.191,9480
-0.113,9547
-0.226,10923
0.00411,5212
-0.00478,5448
3.03e-05,5098
0.115,2336
0.194,1468
0.248,1956
-0.031,6079
-0.0362,6327
0.119,1698
-0.134,8165
0.0508,3942
0.482,731
-0.322,10286
0.0147,4890
0.0973,3632
-0.157,10245
-0.481,10659
-0.0827,6777
0.138,1020
0.369,813
-0.115,7839
-0.407,10644
-0.0488,7006
0.298,1096
-0.351,10399
0.238,286
-0.00941,5698
-0.203,9989
0.173,2652
-0.493,10978
-0.302,9320
0.0538,3562
0.0653,2500
0.438,786
0.241,2740
0.0566,4253
0.403,938
-0.0115,5435
0.191,1332
-0.0446,6176
0.0362,4237
0.308,360
0.0675,4320
0.257,1631
0.0201,4360
-0.282,10712
-0.0736,6910
-0.644,11020
0.371,1789
0.0198,4796
0.46,346
0.136,1228
-0.41,10557
-0.451,10024
0.231,757
-0.144,7877
-0.0129,5654
0.457,1317
-0.277,9822
-0.188,9755
0.00962,5008
0.0327,3844
0.0545,3500
0.279,321
0.0233,4696
-0.363,9922
-0.186,8547
0.0505,4037
0.216,751
-0.0319,5764
-0.0788,6847
0.226,1883
0.25,1362
-0.141,9088
