coef,rank
0.261,1869
-0.379,10897
-0.134,9592
0.0844,3875
-0.651,8388
1.28,304
-0.258,7859
0.13,2357
0.0994,2071
-0.148,8424
-0.136,8122
-0.0681,6470
-0.228,10348
0.037,3829
-0.151,9475
0.103,3284
0.12,3727
-0.389,9175
0.153,715
-0.166,10919
0.156,1620
-0.104,8609
-0.387,9879
0.199,2694
0.231,864
-0.0822,6986
0.208,2131
0.113,2935
-0.0538,7670
-0.662,10135
0.0416,4387
-0.216,10490
-0.0577,6640
-0.393,9732
-0.0141,5410
0.481,423
-0.0878,8027
-0.0128,5851
0.196,1225
-0.186,8069
0.132,2755
0.143,2526
-0.144,9661
0.132,452
-0.0669,6802
-0.0569,6766
-0.418,10863
0.0787,3655
0.0455,3039
-0.071,8995
0.408,548
0.097,3052
-0.336,10431
-0.237,9538
-0.223,9401
0.00685,4929
-0.186,9801
-0.215,8458
-0.391,9870
0.0198,4739
-0.0027,5436
0.136,1662
-0.114,7434
-0.16,8391
0.13,1281
-0.146,10489
-0.116,8292
0.0322,4219
0.0924,2976
0.0651,3173
-0.155,8920
-0.238,7492
-0.205,10298
0.0823,2931
0.0619,3925
0.214,1913
0.736,286
-0.144,9709
-0.0539,6896
-0.00661,5681
-0.295,10890
0.24,962
0.02,5003
-0.102,6690
0.0375,4119
-0.12,9094
-0.118,8533
0.15,2986
-0.016,5427
-0.155,7625
0.123,1491
-0.0415,7464
-0.0897,7219
0.261,1027
0.255,1754
0.00722,4973
0.488,242
0.112,1962
0.028,4631
0.00478,5409
0.00916,5032
-0.103,7613
-0.097,8562
0.315,153
-0.171,9727
-0.00456,5406
-0.14,7174
0.476,367
0.0224,4792
0.359,334
-0.142,8142
-0.0338,6119
-0.342,8132
-0.118,7406
-0.0666,7943
-0.000399,5554
-0.228,9214
0.131,2293
-0.0765,8296
0.0375,4513
0.0371,4489
-0.0544,7536
0.139,1269
0.104,1986
-0.00829,5373
-0.0467,5483
0.0127,4852
0.168,2023
0.241,1659
-0.246,10119
0.152,2633
-0.115,7628
-0.00326,5522
0.0587,3744
0.0527,4249
0.245,343
-0.49,7507
-0.579,10703
0.22,356
0.0823,2909
0.21,2443
0.0205,4737
-0.152,7917
0.282,813
0.0185,4752
0.0134,5214
0.219,1843
-0.0262,5930
0.1,2427
-0.36,10360
0.0524,3733
-0.0723,8136
-0.578,7499
-0.231,9789
0.201,2977
0.164,2015
-0.085,8231
0.206,1237
-0.0152,5551
-0.181,9439
0.0753,3520
-0.206,10334
0.245,1115
-0.0305,6973
-0.106,7865
0.139,2518
-0.043,6945
0.0144,4787
0.0697,3971
0.109,2042
-0.0201,5837
0.177,2770
-0.0271,6160
0.147,1053
-0.0888,9852
0.0634,3255
-0.0889,8316
0.395,484
0.437,1759
0.18,272
0.0643,3613
-0.405,10949
0.246,871
0.255,764
-0.014,5670
0.00485,4838
-0.102,8697
-0.0197,6008
-0.24,9533
-0.126,9101
-0.486,9784
0.0502,3748
-0.0563,7341
0.0318,3849
-0.0038,5366
-0.113,7712
-0.29,9080
-0.217,10441
0.0885,3599
0.0742,3700
0.0681,2898
0.245,1440
0.0679,3174
0.00321,5259
-0.153,10282
-0.0509,6916
-0.269,10314
-0.566,10667
0.231,1094
-0.162,8783
-0.225,10615
0.0814,2286
0.0233,4610
0.17,2363
-0.265,9811
-0.356,10706
-0.114,10394
0.0383,4198
-0.346,10881
-0.165,8969
-0.203,8458
0.223,2116
-0.25,10133
-0.152,10125
0.0553,2870
-0.0204,5627
0.222,2178
0.148,2182
0.239,335
-0.1,9247
-0.0734,8454
0.202,1681
0.181,1922
0.327,669
-0.0391,5888
0.257,18
-0.231,9981
0.0861,3482
-0.032,5733
0.0243,4357
0.052,4125
-0.0208,3853
-0.338,9453
-0.0107,5694
-0.176,9274
0.15,2522
-0.252,10872
-0.0122,5805
0.167,2313
0.0413,4210
0.318,3615
-0.0747,6449
-0.143,9914
-0.152,10364
-0.416,10388
0.204,2801
-0.0148,5254
0.12,3512
-0.114,8508
-0.0494,6725
0.245,610
0.015,4972
0.198,1780
-0.223,9839
0.318,258
0.227,1157
0.304,1445
-0.156,9385
0.108,2893
0.15,2737
-0.116,8462
0.0588,2697
0.0689,3269
-0.213,9708
0.26,1404
-0.00232,5285
0.022,4525
0.0397,4338
0.181,1888
-0.283,10376
0.0979,3644
-0.0897,8004
-0.0135,5671
-0.369,10723
0.202,1607
-0.182,8619
-0.231,9319
-0.0318,6217
-0.21,10903
-0.108,8193
-0.14,8050
0.111,3447
-0.294,10085
-0.253,9779
-0.0459,7557
-0.32,11013
0.177,2895
-0.00913,5403
-0.0478,5980
-0.118,6869
-0.0246,5987
0.0332,4145
-0.148,9146
-0.000886,5055
0.512,63
0.255,1971
0.151,581
0.413,323
-0.132,9111
-0.413,10359
-0.26,9141
0.0154,4517
0.132,1185
-0.0305,6260
-0.00389,5649
-0.482,10354
-0.246,9271
0.15,2586
0.468,437
0.137,3133
0.208,2321
-0.028,6171
-0.0845,6605
0.0907,4230
-0.0502,7191
0.584,11
5e-05,5281
-0.00586,5273
-0.0529,7470
0.0647,4357
0.0278,4081
-0.137,9416
0.587,361
-0.148,7782
-0.0499,6844
0.169,3107
-0.153,9798
-0.0116,5847
0.18,936
-0.0683,7585
-0.1,8218
-0.138,7736
-0.118,9363
0.447,919
-0.311,9463
-0.0429,7393
-0.0726,8441
0.0363,4300
-0.182,10149
-0.303,10789
0.731,1804
-0.209,6870
-0.352,5816
0.63,1665
-0.208,7781
-0.269,7204
-0.25,9616
-0.156,8513
-0.159,9195
-0.00621,5314
-0.016,6283
0.00462,4892
0.102,3791
-0.0637,6548
0.174,2086
0.149,2876
-0.06,7063
0.0893,2006
-0.465,10253
-0.0926,7356
0.0313,4756
0.249,1054
0.0912,3641
-0.231,10737
0.164,2066
0.176,2417
-0.194,8384
-0.289,8302
-0.0876,7355
0.106,2097
-0.146,7410
0.0391,3484
0.28,1076
-0.065,5844
0.0225,4669
0.126,2082
-0.0716,7299
-0.197,9393
0.437,1585
-0.242,9663
-0.151,9757
0.205,931
0.00785,5268
0.0888,3929
9.15e-05,5339
0.379,1299
0.086,3281
-0.0862,8287
0.00664,5120
-0.13,8926
-0.316,10433
-0.249,10385
0.0513,3895
-0.0443,6662
-0.365,10877
0.0825,3494
0.0375,4573
0.57,1057
-0.0171,7238
-0.115,8755
0.0527,4095
-0.234,9213
0.497,190
-0.267,9991
-0.115,9307
-0.0768,9636
-0.00312,6035
-0.336,10815
-0.267,8528
0.0876,3043
0.372,1393
0.19,334
0.135,2815
-0.149,8247
-0.046,5987
-0.293,8476
0.387,519
-0.0427,7080
-0.353,10843
-0.102,7099
-0.118,7495
-0.11,8076
-0.0804,8179
0.0164,4995
0.28,915
0.159,1963
-0.135,7909
-0.187,10139
0.0316,4656
0.0467,3989
-0.00475,5643
-0.498,8229
-0.696,10994
0.0172,4890
0.508,813
0.0549,3499
-0.0683,6924
0.055,4385
-0.0814,5878
0.0449,4245
-0.0111,5259
0.0156,4976
-0.456,10476
0.0885,4001
-0.329,10904
0.456,753
-0.161,9043
0.0957,1761
0.0714,2376
-0.217,9642
-0.16,8635
0.198,1368
-0.216,10399
0.0372,3948
0.0119,4978
-0.41,10815
-0.514,10943
0.0459,4671
0.0107,5069
0.0261,4514
-0.268,10830
-0.334,10420
-0.295,10310
0.0746,2985
0.0607,3612
0.461,43
0.0875,3432
-0.133,8791
0.41,1212
-0.353,10979
0.172,1694
-0.0784,8108
-0.128,6913
0.057,3485
0.137,2724
-0.256,9300
0.201,1060
-0.0552,7201
-0.0258,6332
-0.0132,5577
0.284,264
-0.279,10614
-0.132,8790
0.00805,4822
0.0155,5105
-0.0895,8500
-0.102,6393
-0.395,9579
-0.287,10940
0.0104,4916
0.128,1586
-0.0789,7099
-0.127,7938
0.436,1758
-0.0969,7627
-0.0691,8538
0.131,1242
-0.222,7992
0.415,188
-0.232,7576
0.198,1970
-0.0627,6010
0.0773,2639
0.261,2593
0.0391,4632
-0.0608,5992
0.125,3682
-0.116,9539
-0.0586,7518
-0.0788,8188
0.026,4213
0.378,1016
-0.172,9000
-0.0545,7157
0.486,75
-0.194,6785
-0.428,10573
-0.174,8250
-0.295,7358
-0.0556,7327
0.101,2923
-0.404,10938
0.0833,3630
-0.257,10478
-0.632,11008
-0.199,10422
0.0961,1478
1.63,464
-0.769,10512
0.214,3462
-0.0656,5524
0.0815,2916
0.0747,4012
0.0778,3009
-0.379,10851
0.00641,5012
0.00813,5154
-0.152,9320
-0.0209,5755
0.125,2533
0.151,1934
0.23,2828
-0.574,9768
-0.0334,6256
0.107,3038
-0.299,10431
-0.113,7895
-0.0572,6606
0.128,2588
0.00851,5025
-0.168,8498
0.0814,3271
0.367,78
-0.282,10121
0.112,2987
0.111,2226
-0.0508,7074
0.283,513
-0.0558,6954
0.216,2091
-0.118,9384
-0.0192,6124
0.116,3332
-0.0826,7333
0.0728,3720
-0.222,9664
-0.00866,5691
0.17,1421
-0.0406,7081
0.252,2420
0.0125,4823
-0.0823,6575
1.11,309
0.035,4324
0.0196,4744
0.234,2069
-0.00989,5755
0.0176,4788
-0.0819,7092
-0.0668,7564
0.216,685
-0.203,10145
-0.153,9788
-0.283,9109
-0.142,7358
-0.0281,6927
0.0864,3502
-0.119,7358
-0.0669,7085
-0.315,10430
-0.0572,7060
0.355,205
0.115,2327
-0.53,10998
0.681,102
0.116,2761
0.155,2978
-0.15,9280
0.0304,4263
-0.449,10451
0.0388,3655
0.131,3515
0.916,397
0.0227,4791
-0.155,9639
0.134,2688
0.062,3540
0.237,1783
0.119,2993
0.0238,4568
0.108,2052
0.17,421
0.173,1372
0.186,1513
0.156,2068
0.00337,5101
-0.114,7239
0.0928,2086
0.148,3088
0.448,2093
0.2,910
-0.0369,6873
-0.0577,8112
-0.0237,6433
-0.198,8996
-0.168,8637
-0.0712,8094
0.0589,2461
-0.191,10209
0.38,600
0.287,1390
-0.214,8719
-0.0153,5747
0.502,83
0.365,927
0.0202,4779
-0.106,6942
-0.0669,7158
-0.0308,6578
-0.0893,8060
-0.171,4508
-0.0425,7127
-0.438,10390
0.22,1860
0.138,1023
-0.177,7509
-1.04,10878
0.623,2112
0.902,160
-0.612,10273
-0.0309,5576
0.224,1876
-0.121,9222
-0.111,8550
-0.137,9518
0.033,3519
0.0786,4065
0.164,3057
0.132,3350
0.165,1173
-0.163,9456
0.221,446
0.129,2973
0.326,199
0.0278,4749
0.0559,3414
0.171,1779
-0.351,10804
0.241,1846
0.319,998
-0.0274,6079
-0.00408,5295
0.00185,5372
-0.0985,8707
0.0289,4639
0.105,2309
-0.239,9685
-0.269,9759
-0.0776,7937
-0.0153,5427
0.861,4
-0.158,6493
0.00283,5283
0.498,346
-0.0717,7274
-0.0597,6949
0.0228,4649
-0.0273,5714
-0.46,10883
-0.334,10164
-0.0231,5625
0.284,418
-0.242,10090
0.228,2965
-0.229,9184
-0.0773,6959
-0.0611,6911
0.168,1612
-0.00933,5681
0.349,233
-0.31,8159
-0.885,9303
-0.09,8230
-0.00259,5490
0.00958,5171
-0.166,8761
-0.0274,6591
-0.0103,5480
6.11e-05,5197
-0.0357,7048
-0.385,9914
-0.0311,5760
-0.208,9203
0.316,788
-0.201,9355
-0.188,10393
0.211,2332
0.141,3148
0.656,1380
0.278,1804
-0.0499,7158
0.24,1403
0.226,1473
-0.172,9874
0.0489,4158
0.633,565
-0.0545,6504
-0.134,8752
-0.181,9553
-0.155,9649
0.472,1386
-0.38,7721
0.00403,5340
-0.0115,5733
-0.0984,8107
-0.0198,5825
-0.0427,6306
0.212,2135
0.0394,3987
-0.0655,7197
-0.0248,5733
0.0232,4812
0.1,3033
0.025,4536
0.232,529
-0.194,10861
-0.335,10902
-0.00787,5244
0.0554,3148
-0.0586,6717
-0.266,9451
0.03,4103
0.482,119
-0.192,9058
0.574,77
0.231,2501
0.0382,4397
0.0887,3615
0.227,1056
-0.307,9054
-0.14,7528
0.0321,4444
0.14,1255
0.578,427
0.821,317
-0.387,10737
-0.28,9804
-0.128,7952
-0.0709,7770
-0.0663,6808
0.164,2784
0.0898,2288
0.821,557
0.783,285
0.343,464
0.0659,2999
0.0224,4991
-0.339,10410
-0.039,6480
0.109,3384
-0.0858,8065
0.0812,3015
0.0187,3802
-0.0202,8586
-0.0262,8444
0.0117,3227
-0.0128,7855
-0.401,6565
-0.229,9897
0.722,1037
-0.247,6001
-0.241,5648
-0.104,7745
-0.211,9295
-0.343,8311
0.189,2212
0.457,1294
-0.163,9902
0.451,379
-0.42,6640
-0.0539,6816
-0.38,10491
0.118,790
-0.235,10221
0.174,1762
0.431,888
0.155,2971
-0.449,9986
0.167,2495
0.149,1881
-0.0894,7056
-0.67,9616
0.0271,4743
0.185,2241
-0.203,5419
-0.258,10249
0.0238,4851
-0.317,10160
0.0705,3796
-0.075,8442
0.11,1698
0.00458,5237
-0.173,8029
-0.0617,7207
0.681,394
-0.00894,5628
-0.105,9065
-0.0279,7195
-0.0416,6185
0.0315,4343
-0.0708,7045
-0.0459,5945
-0.0804,6972
0.059,3585
-0.225,9264
0.31,638
0.19,1819
-0.105,8926
0.284,137
-0.0358,6202
0.146,1981
-0.125,9433
-0.489,10810
0.0131,4958
0.0181,4903
-0.107,8255
-0.25,5820
0.0381,4181
0.342,898
0.0556,4123
0.147,1741
-0.238,9982
-0.327,9811
0.309,90
-0.14,7179
-0.181,9730
-0.144,9747
0.295,204
-0.0109,5786
-0.0495,6460
-0.123,7872
0.448,921
-0.0534,7687
0.165,777
0.517,1421
0.121,3025
-0.19,10004
-0.00799,5556
0.0914,2612
0.0423,3995
1.88,955
-0.395,6456
-0.0505,7042
0.424,2276
-0.147,8751
0.195,362
0.425,775
0.0744,3186
-0.128,7537
-0.169,10837
0.0551,3872
-0.126,9199
-0.509,9400
0.535,2350
-0.192,5562
0.307,1236
-0.0649,6692
0.233,1242
0.12,3681
0.195,1376
0.0866,2517
0.0822,3304
-0.0339,6177
-0.0794,7227
-0.121,7956
0.0711,3563
-0.331,10872
-0.0954,8087
-0.0633,6946
-0.307,9991
-0.0689,7301
0.084,3706
0.291,961
-0.302,10538
0.128,2730
-0.12,6515
-0.363,10152
-0.0922,7577
0.103,3183
-0.0641,7022
-0.0321,6278
0.499,170
0.0811,3133
0.117,2850
-0.0499,7446
0.11,2089
0.0628,1852
-0.273,10334
-0.307,10796
0.0633,3743
-0.201,10980
0.169,2443
0.0442,3786
-0.394,9017
0.266,1412
-0.296,9506
-0.113,7139
-0.143,10220
-0.0944,7408
1.07,212
0.0428,4154
0.136,1879
-0.149,7307
0.177,813
0.16,2166
0.353,1368
0.104,3138
-0.0929,7311
0.113,3493
-0.0885,9301
-0.334,11001
0.0463,4434
0.0841,3120
0.23,2031
-0.35,9281
0.385,684
-0.293,9875
-0.0977,7492
0.229,1377
0.166,805
0.159,2561
-0.129,6601
-0.249,9107
-0.524,10739
0.131,1488
-0.173,9164
0.054,4111
-0.402,10101
0.447,1218
-0.666,9177
-0.00603,5592
-0.211,10152
-0.208,7413
0.019,4821
0.168,3061
-0.303,10885
-0.0776,8435
-0.189,10733
0.0409,3445
-0.0995,7227
-0.256,10960
-0.13,9355
0.157,991
-0.134,9199
-0.0305,6208
-0.147,9396
0.352,1138
-0.156,7209
0.000554,5424
-0.0596,7189
0.115,2814
0.0418,4595
-0.231,9739
0.167,2639
0.013,5124
0.381,66
-0.0275,5708
0.0902,3747
-0.404,10484
0.263,811
-0.0975,8225
-0.197,8368
-0.336,10282
-0.108,8708
0.209,1791
0.078,3162
0.0308,3079
-0.348,10275
-0.586,9832
0.0927,3959
-0.0424,6669
-0.0994,8863
-0.169,9727
-0.263,9659
-0.0965,8192
-0.138,6384
0.0927,2367
-0.0781,7075
-0.232,10958
-0.279,10029
0.0565,4467
0.64,1257
-0.176,8058
-0.208,8251
-0.0407,6618
0.0461,4518
0.14,2485
-0.0689,6622
0.44,713
0.14,1406
0.361,91
0.476,1249
-0.0878,7594
-0.0498,6332
0.276,2523
0.000982,5025
-0.00446,5544
0.361,761
0.0104,4856
-0.275,9590
0.0545,4293
0.155,2019
0.0766,3218
-0.0272,6004
-0.206,8783
0.0131,4790
-0.678,9736
-0.0034,5484
-0.228,10600
0.394,651
-0.173,8244
0.255,2028
-0.0937,7647
-0.0294,6052
0.133,3298
-0.116,7224
0.203,1206
0.113,1340
0.143,2098
0.00196,5343
0.046,3915
-0.00199,5339
-0.236,10669
0.0839,3472
-0.0375,6439
0.242,136
-0.108,8433
0.153,1491
0.0612,3858
-0.0317,6412
-0.0127,5247
-0.172,9737
0.0493,3638
0.262,2796
-0.0814,6850
-0.363,10889
0.399,867
-0.197,9847
-0.105,8542
0.215,1916
-0.143,9320
-1,10343
0.0249,4458
0.24,1028
-0.0826,7537
-0.00929,5665
-0.431,10688
-0.0605,7135
-0.289,10331
-0.259,10809
-0.339,9877
0.228,1743
0.0762,3766
-0.0405,6679
-0.0899,8941
-0.0444,6685
0.45,155
-0.0531,5941
0.0752,3608
0.0422,3987
-0.115,9225
0.154,1191
0.0974,2640
-0.176,8283
0.325,2117
-0.0817,8838
0.027,4324
-0.187,9155
-0.124,8758
0.411,1146
-0.188,8661
-0.157,8018
0.0115,4948
-0.272,10207
-0.0326,6096
0.103,3881
-0.0613,6166
0.058,3582
-0.0775,8211
-0.0886,6903
0.0916,3222
0.0648,3937
-0.184,7771
-0.072,7733
0.109,1711
0.287,1082
0.0183,4982
0.574,178
0.218,2768
-0.0412,6125
0.11,2459
-0.0322,6755
-0.379,10708
-0.0273,6308
0.439,904
-0.0657,8700
0.0203,4750
-0.172,8644
0.191,3019
1.23,472
-0.278,10450
-0.0605,6941
-0.148,9815
0.281,444
0.21,696
-0.325,7855
0.212,2029
0.123,1540
0.0747,2991
0.226,1941
-0.126,7237
0.131,2555
-0.125,8784
-0.205,10590
-0.143,9176
0.409,684
-0.0282,6052
0.107,2646
0.469,1926
-0.207,9140
-0.018,5244
-0.127,8717
-0.14,8697
-0.109,9763
0.164,2331
0.0187,4744
0.281,1298
0.0798,3761
0.31,411
0.178,3379
0.155,2713
0.0508,3315
0.262,392
-0.0413,6633
0.236,1383
0.021,4824
0.132,3477
0.042,4125
-0.0612,7453
0.118,3421
0.215,1674
-0.118,7769
0.0458,4570
0.0162,4788
-0.195,10245
0.087,3473
-0.0401,5756
0.0409,4410
-0.0136,5912
-0.0984,7257
0.201,1860
0.283,1173
-0.0508,6427
0.12,2496
-0.106,9999
-0.267,10825
0.203,1546
-0.225,10520
-0.091,7012
0.162,1254
-0.00308,5297
0.029,4341
-0.101,8703
0.464,1170
0.261,918
-0.0744,7502
-0.0914,8258
0.00874,5049
-0.0875,6124
-0.188,9115
0.0957,3008
1.4,91
-0.00666,5733
0.233,991
-0.0258,6062
0.184,1871
0.0693,3719
-0.0775,6843
-0.0974,6818
0.0938,2148
0.285,273
-0.385,10930
0.116,3528
-0.221,7788
0.0747,3354
-0.0144,6111
0.0604,3746
-0.0331,6117
-0.146,8540
0.106,2737
-0.138,9680
-0.0901,8620
-0.136,9126
0.0613,3972
-0.735,10269
0.0641,4241
0.218,1648
-0.243,10376
0.186,2106
0.19,394
-0.17,8156
0.0384,4523
0.0842,3722
-0.0962,7668
-0.00877,5604
0.0841,4088
-0.156,10025
0.0951,3934
-0.0384,6743
0.15,697
-0.0692,7654
-0.366,10462
0.353,229
0.367,1204
0.0431,3102
-0.00968,5664
-0.2,9410
-0.187,9657
-0.0347,6448
0.642,153
0.22,1298
0.0319,4491
0.143,2763
-0.201,8632
-0.255,9413
-0.476,8273
0.000477,5259
-0.033,5809
0.0676,3621
-0.134,8969
0.0287,4659
-0.647,10864
-0.0584,7217
-0.068,6952
0.0223,4664
0.26,2705
0.179,907
-0.0368,6132
0.0249,4165
0.0339,4257
-0.183,8599
-0.175,9708
-0.119,6781
-0.173,9549
-0.073,9196
0.0215,4647
0.0466,4108
-0.0752,6329
-0.153,9423
-0.0338,6763
-0.0196,6103
-0.139,8085
0.0801,2763
-0.0338,6400
-0.147,9847
-0.0404,7000
-0.104,8884
-0.145,9193
0.0485,4269
-0.0939,6809
-0.0103,5612
-0.0988,7984
-0.243,9820
0.0871,3272
0.144,3155
0.32,1677
-0.0236,5888
-0.0587,7216
0.0368,4274
0.000466,5422
0.361,94
0.143,3570
-0.00971,5622
-0.0902,8401
-0.0411,6896
-0.222,9038
-0.0518,7026
-0.3,8997
-0.267,10299
-0.106,9807
-0.0991,9123
0.132,2621
0.129,2353
-0.267,10262
0.125,3155
0.212,1333
-0.181,10684
-0.162,8463
-0.0209,5944
-0.213,9045
-0.195,8792
-0.154,9161
0.13,907
-0.029,6300
-0.0397,6459
-0.197,9148
-0.12,8178
0.0137,4686
-0.0791,8197
0.0386,4681
-0.107,8032
-0.1,7622
-0.083,6975
0.132,1554
0.257,640
-0.147,8441
-0.00205,5439
0.182,1256
-0.202,8685
-0.0571,7100
-0.0306,6319
-0.0322,6358
-0.598,10515
0.227,631
0.000748,5210
0.0999,2147
8.75,0
0.0218,4826
-0.284,7421
-0.56,8559
-0.0838,7736
0.184,1891
0.13,3527
-0.0416,6272
-0.0224,5717
0.135,3172
-0.183,9467
-0.0984,9508
-0.165,8249
0.469,571
-0.0191,5611
-0.176,7812
0.0507,3602
-0.12,9427
-0.547,11021
0.209,1225
0.267,1651
0.0276,4352
-0.394,9931
-0.137,9288
0.285,2132
-0.159,10132
-0.174,8520
0.148,1736
-0.117,9974
-0.156,9415
-0.237,10065
-0.133,8803
0.326,2155
-0.558,10290
-0.0489,7215
0.00791,5168
0.417,477
-0.203,9950
-0.178,7213
0.824,1240
-0.0908,8606
0.185,1433
-0.393,10892
-0.0699,8075
-0.0445,6426
0.309,483
0.295,189
-0.182,10784
0.0807,2189
-0.0583,7187
0.00387,5369
-0.0823,8104
-0.0129,6406
0.212,980
0.151,2853
0.0115,5026
-0.109,7164
0.203,872
0.0891,2336
-0.129,9515
0.194,1565
0.693,202
0.259,253
0.174,3076
0.00236,5447
-0.0547,6678
0.0494,993
-0.114,6916
-0.000636,5552
-0.0841,6618
-0.082,7845
-0.585,10467
-0.0164,5578
-0.133,9101
0.271,1014
0.521,1667
-0.0284,5960
0.299,1814
-0.131,7390
0.0418,3725
-0.08,6430
-0.00576,5288
-0.0694,6947
0.0741,3470
0.142,2537
-0.016,5775
0.00374,5082
-0.735,11002
-0.0378,4988
-0.169,8505
-0.156,9015
-0.0233,5927
-0.102,8438
0.117,2333
0.173,2568
0.16,3140
-0.231,9520
-0.0872,9639
0.152,2192
-0.141,9092
-0.0951,7855
-0.168,9270
0.104,3968
0.0233,4293
0.0509,3204
-0.0501,6814
-0.137,8417
0.019,4880
-0.253,8914
-0.0759,6467
-0.083,7725
-0.261,10168
-0.208,9667
0.0456,4072
0.222,2597
-0.0063,5715
0.126,1596
-0.173,8123
0.00813,4983
0.0707,4005
0.112,3928
0.0862,2903
-0.395,10550
-0.169,9555
-0.127,8784
0.84,228
-0.329,10780
-0.115,9008
0.0351,4578
0.0636,4060
0.00862,5179
0.0407,4570
-0.378,9916
-0.161,9332
0.042,2997
-0.0536,5894
0.366,440
-0.284,9953
0.93,129
0.143,1391
0.244,598
-0.297,10773
0.57,19
-0.158,8249
0.0488,4117
-0.0499,8326
-0.0244,7048
0.0909,2745
0.0135,4916
0.259,2873
0.0485,4014
-0.0537,7524
0.827,7
0.0911,3446
-0.137,7074
0.0224,4885
0.0142,4829
0.00479,5137
0.0896,2743
-0.0169,5755
0.0944,2513
-0.178,8282
-0.0378,6298
-0.194,9733
0.0524,3472
0.251,1519
0.348,469
0.0241,4533
-0.196,9807
-0.0958,9732
0.0375,3639
-0.548,10809
-0.267,8177
0.0353,4916
0.0643,4104
0.932,13
0.0488,3787
-0.0359,6633
0.202,940
0.21,1468
-0.245,10129
-0.175,9693
-0.204,8944
-0.0763,6100
-0.0988,6069
-0.281,7711
0.129,2779
-0.0809,7980
-0.026,5864
-0.0947,6752
-0.0557,8353
-0.0173,5359
-0.685,10635
0.0299,4048
-0.0107,5502
-0.0214,6390
-0.612,10618
0.267,2886
0.115,3110
-0.0478,7029
0.046,3856
0.139,3239
-0.035,5617
0.0175,4585
-0.0054,5412
-0.0617,6863
-0.0143,5755
0.00505,5204
0.301,366
0.283,667
-0.282,10454
0.00512,5064
0.17,1318
0.095,3236
-0.0265,6305
0.565,449
0.143,3637
0.481,109
0.00414,5146
-0.0859,7040
-0.124,8829
0.232,2470
0.0768,3753
0.00202,5566
0.107,1236
-0.152,6899
-0.157,6723
0.0744,4156
-0.0366,5763
-0.133,9686
0.132,1331
0.238,799
0.00749,5040
-0.346,10815
-0.214,9904
-0.0703,7882
-0.0912,7525
-0.0803,6594
0.155,2166
0.128,2101
-0.0374,5616
-0.0998,7638
0.334,186
-0.043,6533
-0.123,7312
0.0313,4573
-0.0461,6214
-0.0677,7188
0.0452,3485
-0.0202,5930
0.33,1195
-0.196,7313
-0.583,10175
-0.154,8967
-0.164,9770
-0.261,9251
-0.23,8646
0.38,98
-0.0502,7052
0.143,1355
0.0519,3327
-0.0125,6029
0.356,601
-0.404,10872
0.0839,3618
-0.0218,6051
0.0149,4812
-0.0181,5547
0.303,586
-0.119,10051
-0.298,9310
-0.0184,6040
-0.181,9769
-0.0585,6318
0.351,844
-0.0808,7797
-0.266,9430
0.0717,3059
0.188,3331
-0.0516,6666
-0.112,7897
0.0698,4200
0.0877,3798
-0.0241,6220
0.0344,4235
-0.0948,8605
0.292,556
-0.313,9987
-0.193,10415
-0.0565,8160
0.00716,5084
-0.0757,5848
0.104,2722
-0.44,10976
-0.35,10976
-0.135,7880
-0.0853,8819
-0.108,7802
-0.229,9430
0.0413,4389
0.0263,4542
0.135,2856
-0.00202,5324
-0.203,9177
-0.0298,5592
0.135,3550
-0.0861,8167
0.153,2327
-0.0475,6735
-0.0598,7273
0.41,284
-0.33,9915
-0.000864,5202
0.173,1014
-0.18,7704
-0.0331,6630
-0.0546,5971
-0.328,9158
0.314,306
-0.0513,6469
-0.000678,5515
0.31,465
-0.0394,6447
0.193,1136
-0.11,8991
0.231,383
-0.115,7540
0.0963,3555
-0.141,8365
-0.0132,5397
0.0641,3987
-0.0834,8480
-0.218,9504
0.374,314
-0.469,10995
0.293,1381
0.26,1248
-0.0914,8292
-0.109,6152
0.019,4750
-0.171,9412
0.179,2239
-0.138,9305
-0.0884,8147
-0.193,10657
0.0554,4370
0.11,3458
-0.297,10403
-0.101,8531
-0.127,8576
0.00597,4793
-0.0299,5432
-0.00309,5359
0.102,3067
0.133,2309
0.155,1215
1.78,92
0.323,1382
0.488,582
-0.247,5292
-0.118,8191
0.518,1203
-0.157,8862
0.0164,4672
-0.0685,7141
-0.139,8801
-0.129,9482
-0.0734,7765
-0.148,6907
0.2,1549
0.0535,4061
0.0302,4091
-0.0621,8567
0.145,1311
-0.346,10170
0.216,2163
-0.245,8431
-0.144,8720
-0.0129,6169
0.0794,2808
0.235,1006
-0.0506,5505
0.27,997
0.131,3266
-0.0551,6978
0.0275,4132
-0.296,10072
-0.335,10702
-0.163,8920
-0.0073,5606
0.167,935
0.0644,4109
-0.538,7709
-0.137,8084
-0.0877,7940
-0.0187,5708
-0.0219,5449
0.271,975
-0.159,7548
-0.0676,7052
0.275,2032
-0.0287,6166
0.0293,4042
-0.2,9325
0.195,1778
-0.241,9782
-0.144,7812
0.0181,5035
0.153,1590
-0.123,6675
0.519,213
0.286,1465
-0.43,8875
0.0252,4308
-0.22,9468
-0.204,9525
0.363,845
-0.00482,5254
0.0338,4624
-0.0793,8021
0.0493,4138
0.0231,4441
-0.639,8992
-0.304,10937
-0.578,9636
-0.11,9652
0.214,543
-0.242,7019
0.322,1850
-2.11e-05,5445
-0.254,9573
-0.0888,7006
-0.0455,7015
-0.0598,7190
0.0627,4031
0.292,2025
0.0985,3412
0.173,861
-0.118,8065
-0.171,8080
-0.136,8822
0.118,2798
-0.175,10551
-0.111,8184
0.0963,3281
-0.135,7379
-0.0387,6233
-0.208,9395
0.0126,4842
0.0207,5063
-0.148,7714
0.0815,3321
0.0384,4440
-0.0356,5946
-0.0767,7382
-0.113,8761
-0.0372,6306
-0.0427,5999
0.0188,4852
0.218,1043
-0.0156,6676
0.0427,2957
-0.101,6320
0.124,2583
0.000229,5273
0.0535,4144
0.209,463
-0.00495,5465
0.0197,4228
-0.227,8502
-0.445,8667
-0.123,8254
0.0517,4079
-0.162,8369
0.000179,5273
-0.622,11011
-0.0788,6711
-0.0285,6087
-0.0853,8059
-0.053,6489
-0.432,10617
-0.00587,5273
0.209,1704
-0.0758,7062
0.0106,5105
-0.0345,5951
-0.0251,6395
0.284,555
0.0895,3410
0.101,3460
0.213,802
0.0121,4851
-0.145,9300
-0.217,9734
-0.234,7819
-0.135,10120
0.216,1036
-0.0818,8009
-0.153,8384
-0.3,9321
0.162,1666
-0.488,10804
-0.151,9259
0.303,771
0.0115,4942
0.0612,3627
0.00175,5337
0.238,832
-0.506,11032
-0.0326,6328
0.109,3039
-0.2,10298
-0.038,6553
-0.0727,7400
-0.134,10291
-0.0625,7736
0.207,1787
-0.347,10431
0.05,3273
-0.0976,8460
0.0669,3628
-0.00497,5551
-0.0444,6436
0.0729,3374
-0.076,6445
-0.184,7723
-0.0483,6431
0.0344,4256
-0.278,10103
0.435,1963
-0.0589,6360
-0.234,9711
0.0696,3716
-0.114,8296
-0.25,9908
-0.183,6498
0.0159,4605
-0.239,9035
0.257,1170
0.0749,2938
-0.219,7476
0.158,1871
0.0667,3646
-0.132,6636
-0.164,10141
0.0842,3781
-0.129,8422
-0.154,8707
-0.309,10880
0.279,1800
0.123,1304
0.194,602
0.198,2125
-0.168,7919
0.065,3920
-0.0098,5681
0.0214,4448
-0.111,9902
0.0284,4449
-0.1,7224
-0.2,10417
-0.238,9882
0.155,1176
0.275,1002
0.209,964
-0.255,9470
-0.000814,5345
-0.0154,5949
-0.0819,7476
0.0474,4353
0.405,1202
-0.151,9866
-0.205,8371
0.265,1066
-0.0756,9029
0.381,984
0.15,2274
0.0637,3391
0.121,2079
-0.517,11017
-0.0358,6933
-0.0449,6270
-0.35,10562
0.3,1591
1.15,6
0.74,559
0.13,1997
0.0643,2865
0.07,2593
-0.164,8284
-0.123,7646
0.0753,3904
-0.338,10874
-0.0447,6607
-0.218,8735
0.0602,3914
0.31,1703
-0.0182,5315
0.0156,4948
0.0921,2591
0.216,2048
-0.163,9778
-0.126,7275
0.178,3076
0.137,904
0.00932,5096
-0.0377,6302
-0.198,10517
-0.0663,6547
-0.455,9926
-0.155,8543
0.117,3189
-0.134,8889
-0.0909,7184
0.368,764
0.176,1173
0.184,935
0.172,2575
0.298,1048
-0.0996,8519
-0.236,7924
0.476,485
-0.0423,7677
-0.025,6439
-0.205,10472
-0.0508,7093
0.116,2699
0.0891,2907
-0.0899,7166
-0.143,10278
-0.06,7055
-0.296,10052
0.165,2746
0.202,987
0.177,1451
-0.234,9966
-0.359,9502
0.122,2931
-0.117,8382
-0.331,9081
0.0792,2779
0.202,670
0.0631,2784
0.281,200
0.348,227
0.105,3186
-0.303,9782
-0.0199,5291
-0.197,10113
0.417,523
0.227,2242
0.00679,4997
0.0253,4717
0.0273,3320
-0.272,9943
0.414,453
0.246,1344
-0.309,9878
0.0947,2966
0.193,2115
-0.0879,7398
0.25,1770
-0.187,9759
0.0868,2705
0.0133,4883
0.191,869
-0.0968,7823
0.149,1557
-0.419,10195
-0.0045,5141
0.0192,4560
0.0761,2599
-0.414,10632
-0.144,9786
0.266,1376
-0.000982,5480
-0.0624,6430
0.0729,2668
0.119,2687
-0.321,10824
-0.319,9486
0.0911,4221
-0.016,5469
-0.109,7313
-0.0145,5665
-0.274,9986
0.0745,4403
0.0992,3499
-0.263,10070
-0.116,8710
-0.0702,6631
-0.02,6303
-0.147,9752
-0.145,7196
0.00587,4980
-0.0453,8484
-0.282,9396
0.269,1658
-0.188,10937
-0.314,7379
-0.126,9829
0.0979,1984
0.302,988
-0.0804,7037
0.512,796
-0.151,7566
0.0231,4543
0.141,1545
-0.124,8543
-0.126,8462
0.0798,4373
0.115,3022
0.029,4358
-0.124,9521
0.245,848
-0.0489,6104
-0.046,5513
-0.225,9613
-0.0484,7485
-0.0328,6559
0.236,265
0.0369,4517
0.0688,4106
0.0844,3348
-0.115,9492
0.0729,2015
0.496,162
0.753,413
-0.223,9551
-0.502,10754
0.221,1838
-0.134,7927
0.362,584
0.00989,5135
0.0218,4957
-0.118,7363
-0.0415,6765
-0.0792,6434
-0.22,9110
0.0195,4717
0.289,2106
-0.137,6926
0.0345,3893
-0.0711,6847
-0.0414,5798
-0.347,10580
-0.0599,6689
0.0533,4297
-0.214,10049
0.147,2206
0.0256,4868
0.941,66
0.428,2498
-0.26,9198
0.0393,4295
-0.171,8364
-0.175,9297
-0.0452,6453
-0.163,8669
0.101,2602
-0.154,8802
-0.219,10453
-0.0314,6113
-0.175,6140
0.126,3004
-0.226,9387
-0.15,8804
0.0035,5241
-0.218,9045
0.0612,4123
-0.0419,7102
0.33,974
0.134,669
0.102,1521
-0.118,6793
0.0163,5394
-0.218,9594
-0.283,9789
-0.266,10277
0.0835,3475
-0.0778,6913
-0.132,7310
0.0639,3876
0.0744,4115
0.0176,4920
0.0633,2993
0.312,1417
-0.0065,5203
0.628,140
-0.357,7884
-0.141,9718
-0.113,9106
0.236,1827
0.117,2043
-0.0744,6740
0.283,1258
-0.0892,7579
0.047,3749
-0.392,10936
0.15,1725
0.218,2354
0.121,2312
-0.3,10825
-0.197,10293
0.0805,3712
0.181,2494
-0.0698,6214
0.197,1256
-0.0673,7689
-0.0851,9153
0.538,172
0.00162,5177
0.406,2237
0.323,2878
0.298,609
0.0548,3359
-0.127,7308
-0.101,8093
-0.107,8244
0.139,3414
-0.07,7681
-0.0226,6113
0.0146,5020
0.329,978
0.201,1524
0.35,1363
0.0645,2747
-0.0441,6453
-0.118,6240
0.0934,3078
-0.0733,6861
0.0637,3935
-0.129,9172
-0.117,8718
0.0241,4765
-0.174,8647
0.0638,4160
-0.13,8185
0.0741,2460
-0.381,8720
0.11,1856
0.325,804
-0.108,6725
-0.159,7261
0.00642,5336
-0.0125,5967
-0.276,10020
-0.0796,7213
-0.0867,7050
-0.446,8378
-0.258,9554
-0.0511,6405
-0.037,5525
-0.0304,5946
-0.0731,6246
-0.0426,6874
-0.213,10269
-0.346,10536
0.0865,2288
0.036,4337
-0.122,8215
0.265,1899
-0.164,9601
-0.217,8026
0.0435,4361
-0.12,7977
0.205,1084
0.325,546
-0.064,7510
-0.336,10213
-0.0769,7211
-0.394,9871
-0.00367,5956
-0.158,8970
-0.0443,7012
0.025,4638
-0.192,9059
-0.0721,6489
-0.331,10737
-0.0209,5944
0.0872,3693
0.0439,4353
0.157,2596
-0.191,9478
0.47,28
-0.127,8262
-0.0185,6385
-0.0256,5582
-0.0449,6067
-0.0724,7170
-0.146,9374
0.128,1489
-0.108,9196
0.221,1793
0.241,1165
-0.465,10589
0.00216,5286
-0.173,9614
-0.0364,6745
0.162,2077
-0.0928,7599
-0.272,9249
-0.373,9654
-0.0202,5745
0.134,1227
0.119,1807
0.0514,4030
0.428,1839
1.07,194
0.00429,5300
-0.0842,9130
0.0619,4441
-0.201,9231
0.238,2819
-0.378,11010
-0.238,10451
-0.0107,5657
-0.214,9394
0.485,361
-0.0285,6292
-0.0368,7149
0.172,530
0.364,172
-0.0767,7670
-0.0502,7113
-0.0529,6652
0.123,1958
-0.325,10729
-0.222,10397
-0.104,6671
0.0523,4015
-0.111,7281
-0.223,8779
0.0776,3597
0.0872,3385
0.167,2024
-0.541,10339
0.197,3313
-0.0973,7573
-0.178,9896
0.206,2323
0.426,1907
0.000366,5177
0.139,1855
-0.377,10974
-0.153,9997
0.203,568
0.279,764
0.0321,4319
0.23,1616
-0.185,9564
-0.0344,6178
0.046,4088
-0.26,9974
0.152,2378
-0.211,8455
0.00772,4952
-0.0667,6528
-0.125,7967
0.031,4557
-0.24,7341
0.123,3440
0.167,2907
-0.0533,6970
0.071,3295
-0.0225,5549
0.0801,2601
-0.224,8539
-0.0122,6031
0.00543,5119
0.0819,1823
0.283,1865
0.394,740
-0.0882,9393
0.158,2640
-0.0462,6667
0.112,3090
-0.19,8588
-0.0368,6297
-0.147,7152
0.137,3713
-0.159,9367
-0.0413,6885
-0.0161,5807
0.0135,4775
0.0129,4930
-0.0504,6836
0.301,1884
-0.0959,7979
-0.409,11028
-0.144,8509
0.0508,4207
0.113,2696
0.158,2462
-0.0499,6364
-0.236,9013
-0.0175,5025
-0.0552,7599
-0.162,8978
-0.246,9827
-0.021,6080
-0.0384,7005
-0.0893,7747
-0.114,8205
-0.053,6619
-0.1,7363
-0.0858,6849
-0.0905,7725
-0.108,7747
-0.302,10674
-0.12,7285
-0.114,8462
-0.0354,6850
-0.00461,5498
-0.143,8882
0.285,692
-0.0862,6832
0.176,2354
-0.233,10131
-0.0783,8132
-0.0706,7701
-0.289,7818
0.0761,3712
-0.014,5558
0.292,213
-0.0906,7947
0.174,2277
-0.0148,5616
-0.159,9184
-0.252,9205
-0.0159,5946
-0.0513,6963
0.0161,4924
-0.0814,8193
-0.0727,6985
-0.0559,6358
0.257,1630
0.138,2805
0.00793,4718
-0.0282,5526
0.224,704
-0.144,9486
-0.0647,6092
0.0272,4120
-0.0819,8411
-0.315,9588
0.206,2736
-0.0968,7371
0.186,642
-0.0864,9593
0.0949,2165
-0.0808,7117
0.0181,5117
0.192,1067
0.141,2870
-0.115,7500
0.0111,5072
-0.69,9854
0.0326,4583
0.268,2799
-0.327,9417
1.26,333
-0.0593,7088
-0.16,8035
0.0821,3378
-0.0664,4013
0.223,2456
0.226,786
-0.0405,8172
0.503,115
0.0699,3415
0.0322,4436
0.0212,4809
0.0447,4317
0.194,966
0.0966,3625
0.415,298
-0.189,7632
-0.11,9011
0.16,1940
0.0195,4752
-0.185,8091
0.197,3034
0.894,17
-0.0909,9067
-0.194,8729
-0.00785,5552
-0.291,6453
0.108,3143
-0.0845,7000
0.203,1304
-0.0373,6483
-0.208,9562
-0.165,8941
0.108,2610
-0.11,6819
-0.391,8640
0.129,2538
0.00791,4989
0.0473,3919
0.0166,4989
0.0462,4324
0.053,4556
0.0415,3878
-0.184,10011
-0.147,7697
-0.272,8271
0.181,1344
0.163,2951
0.319,492
0.085,2556
0.106,3001
0.0725,3952
0.0839,2813
0.424,1542
0.143,1573
-0.0743,7788
0.262,1606
0.0465,4053
-0.0264,6000
-0.235,9860
-0.22,9271
0.0928,3861
-0.0715,7102
-0.089,6849
-0.31,10236
-0.0797,5870
-0.0382,5825
-0.194,10267
-0.173,9193
-0.0172,5765
0.0481,4397
-0.115,7352
0.0346,4157
0.0423,3138
-0.0182,5696
-0.285,9793
-0.0485,5557
-0.00401,5212
-0.223,10500
0.0636,2890
-0.229,10148
0.116,3721
-0.072,6605
0.203,1635
0.11,3350
-0.0627,5958
0.000306,5379
-0.131,8046
0.18,3329
0.0145,4733
-0.0138,5977
0.0683,3416
0.151,2114
0.0199,4884
0.0723,3580
0.236,882
0.276,823
0.0848,2474
-0.41,10705
-0.0233,5843
-0.235,9393
-0.0952,7209
-0.0578,7845
0.0308,4259
0.014,5204
-0.536,11015
-0.584,10406
-0.18,8171
-0.13,8694
-0.163,9796
-0.0844,6702
0.158,2160
-0.173,7516
0.459,301
-0.0865,9440
-0.299,11007
-0.432,10887
0.0037,5144
0.0819,3433
-0.154,8737
-0.117,8132
-0.11,8854
-0.105,8441
-0.264,7739
0.919,149
-0.247,9672
0.396,71
-0.0522,6621
-0.185,10156
-0.19,8937
0.0681,3437
-0.144,8251
-0.0741,7627
0.0889,2547
0.0333,4612
-0.21,9873
-0.208,9608
0.00129,4964
0.0443,3164
-0.0834,7131
0.00555,5077
0.15,2518
-0.00897,5574
0.431,1819
-0.326,10934
0.0226,4609
-0.259,10174
0.219,1366
0.00298,5130
0.0489,4093
-0.0802,8294
-0.0978,9037
-0.00911,5632
-0.0897,7066
-0.00201,5350
0.042,4052
-0.0293,6999
-0.14,9024
-0.135,8735
0.0372,4517
-0.0871,7790
0.275,995
0.00421,5171
-0.0433,7515
-0.0752,7431
-0.0194,5392
-0.01,5317
-0.101,6815
-0.085,8758
0.221,343
-0.0257,6145
0.0226,4812
0.0891,3842
-0.24,8136
-0.0207,5931
0.254,332
0.0772,3060
0.00176,5422
0.245,1197
0.0673,3803
0.0708,2714
-0.0176,6231
-0.0144,5750
0.0512,4344
0.19,2135
-0.158,8284
-0.264,10609
0.269,875
-0.114,7872
-0.092,6182
-0.258,10506
-0.274,7348
-0.0857,7236
0.0198,4618
0.476,176
-0.171,9090
-0.00584,5363
0.237,1421
-0.0538,7242
0.164,471
0.111,2898
-0.0479,6365
0.153,2264
0.642,1543
0.746,18
-0.123,8382
0.466,1214
-0.276,9086
0.0423,4174
0.0433,3972
-0.0372,6012
-0.189,9859
-0.155,9204
-0.109,8200
-0.201,9380
-0.265,9045
0.112,2331
0.12,2034
-0.0484,6400
-0.0364,6500
-0.112,6354
-0.302,9214
-0.0349,6332
-0.0407,7813
-0.412,10286
0.0517,4124
-0.0121,5967
0.0125,4991
0.156,744
0.161,1620
0.0667,3767
-0.13,8272
0.473,594
-0.0435,8390
-0.0353,7111
0.103,2464
0.203,2326
-0.152,7104
-0.15,7674
0.364,1521
-0.00463,5742
-0.176,9879
-0.187,9894
-0.336,10199
0.225,1986
0.255,432
0.124,1123
0.293,178
-0.362,10505
-0.0585,6952
-0.0468,5739
-0.464,10917
-0.07,6542
-0.136,10500
-0.247,8766
0.0379,4269
0.827,525
0.0648,3063
0.0594,2958
-0.0801,7467
0.0203,4871
-0.3,9973
0.0258,4577
0.0327,4562
0.00766,5125
0.0459,3443
-0.0422,5819
-0.845,10345
0.141,3349
0.0236,4765
-0.0227,6242
-0.0114,5747
0.216,1416
0.178,2516
-0.136,8607
0.496,650
0.0983,1647
-0.0951,7368
0.209,1394
0.04,4596
0.299,1309
0.0179,4834
-0.251,7162
-0.0273,6218
0.27,2347
0.018,4782
-0.238,9140
0.521,398
0.0289,3802
-0.159,9151
1.29,10
0.129,3840
-0.0384,5967
0.415,1475
0.0895,2538
-0.0631,8091
0.0641,4446
-0.0538,4012
0.127,3826
-0.159,6773
-0.731,9754
-0.199,10534
0.221,1966
-0.283,10089
0.174,2887
0.0198,4830
-0.0354,6442
0.0305,4525
-0.696,8989
-0.224,7660
-0.511,9409
0.274,2007
0.264,116
0.121,1972
0.815,1612
0.884,838
-0.34,9597
0.512,345
0.32,1013
-0.133,9164
-0.247,8772
-0.0716,6418
-0.0747,8320
0.0245,4965
-0.24,10132
-0.072,6543
-0.637,9341
0.204,3186
-0.167,8433
-0.408,10441
-0.109,8259
-0.128,8614
-0.488,9880
-0.178,8548
-0.207,9654
0.00448,4737
-0.176,8900
-0.0776,7725
0.134,3720
-0.326,10591
-0.371,9817
-0.537,9981
0.04,4066
-0.205,10224
-0.208,9305
-0.0848,8335
-0.196,8048
0.371,413
0.0848,2798
-0.0666,7750
-0.43,10833
0.17,2224
0.105,2724
0.0606,3794
0.188,1568
-0.119,6979
-0.0934,8202
0.0208,4536
0.0186,4409
0.0162,4922
0.0309,4569
0.05,4094
-0.0808,7576
-0.0202,6237
-0.278,10720
0.0967,3962
-0.282,7419
0.399,1496
0.278,2400
-0.254,8785
-0.0701,7141
-0.0606,6830
0.408,911
-0.0342,6312
-0.0108,5651
0.0109,4726
0.0642,4098
-0.0122,5553
-0.121,9483
-0.167,8029
-0.0119,5666
-0.0506,6704
0.198,2686
0.0596,3818
-0.111,8614
-0.444,10715
0.0655,3088
-0.104,9992
-0.214,10258
-0.0044,5459
0.198,715
-0.0155,5729
-0.145,9303
0.0406,4251
0.078,2219
0.272,1161
-0.117,8824
-0.169,8161
0.0593,2231
0.0769,3583
0.0219,4488
-0.00199,5237
-0.355,10064
-0.134,8469
0.000232,5438
-0.0792,10762
-0.217,10155
-0.126,7353
-0.327,11018
0.0588,3559
0.275,1036
0.15,1813
-0.309,10608
-0.0467,5964
0.0357,4416
0.345,497
0.137,2033
0.314,1651
-0.113,8770
-0.24,8376
0.242,1782
0.0386,4405
0.0185,4577
-0.156,9714
0.0291,4565
0.00792,5169
-0.232,9426
-0.226,8927
0.277,675
-0.0102,5614
0.074,2717
-0.131,8476
0.304,548
0.00939,5048
0.152,2433
-0.0954,7822
0.194,1731
0.2,2587
0.0368,4715
-0.131,6135
0.126,1352
-0.0199,6191
0.0171,4778
-0.14,8975
-0.222,7409
0.0933,2188
-0.0265,6927
-0.247,10208
0.729,30
0.116,3916
0.172,1970
0.0163,4880
0.217,1533
-0.0546,7398
-0.017,5785
0.517,253
-0.188,7504
-0.586,10533
-0.0333,6332
0.176,388
-0.638,10873
-0.16,7187
-0.154,6243
0.151,3626
0.0912,3459
-0.241,8860
0.0293,4611
0.0834,3270
-0.294,9345
-0.0852,8694
0.24,453
0.0921,2900
0.0135,5010
-0.0333,6781
0.214,3335
0.198,3350
-0.00443,5732
0.0399,4331
0.00478,5339
0.272,595
-0.149,7976
-0.0931,7191
-0.133,10123
-0.155,9284
0.113,2723
-0.215,8969
-0.0638,6763
0.484,13
-0.137,9303
-0.00314,5459
-0.371,10706
-0.387,10313
0.776,248
0.0865,3340
0.165,597
-0.139,7392
0.26,683
0.328,32
0.325,1179
-0.217,6598
-0.159,10165
-0.175,10781
0.7,68
0.359,528
0.0479,3296
0.179,1812
-0.0274,6416
-0.119,8805
-0.584,10472
0.0609,4329
0.389,562
0.0377,4413
-0.29,9949
-0.0524,8237
0.022,4629
-0.101,8307
-0.0978,7663
0.622,204
-0.0712,7144
-0.0286,6567
-0.072,7281
-0.0536,6951
-0.227,9659
0.557,247
-0.101,8839
0.237,759
0.102,2906
-0.291,9771
-0.371,10316
-0.165,9713
0.121,2082
0.259,1488
-0.167,8270
-0.0751,8612
0.254,1066
-0.376,10264
0.233,2087
0.0795,3463
-0.186,8623
-0.0925,7885
0.197,2643
0.00326,5217
0.00457,5089
-0.0397,6127
-0.229,10337
0.037,4597
0.315,2034
0.161,3018
-0.235,10932
-0.0966,8136
0.00895,5335
-0.0869,6791
1.6,908
0.0207,4339
-0.261,10790
0.209,1148
-0.16,8739
0.326,964
-0.106,8715
-0.299,9986
-0.0438,6994
0.106,3137
-0.134,7121
0.0998,3291
0.0979,2008
-0.101,8120
0.209,1708
0.111,1633
-0.024,6374
0.186,1078
-0.415,10859
0.188,1899
-0.125,9305
-0.235,9133
-0.354,10505
-0.125,7520
0.226,1606
0.332,1912
-0.309,10256
0.205,97
-0.175,8679
-0.196,9882
0.365,248
0.0596,3706
-0.0484,6420
-0.00281,5550
-0.804,10243
0.0355,4522
0.649,1600
0.0021,5234
0.222,2045
1.52,1083
0.193,1505
0.416,423
0.217,1301
-0.000453,5249
0.259,946
-0.456,10899
0.0666,3979
-0.101,7426
0.046,4030
-0.0146,5840
0.0397,4304
0.256,1640
0.547,583
0.144,2651
-0.113,8666
-0.206,9083
0.0709,3364
-0.0109,5811
-0.119,8719
-0.174,8562
-0.0953,9442
-0.0166,6170
0.0381,3911
0.124,1138
-0.094,7807
-0.592,9488
0.0984,2214
0.2,1138
-0.0363,5958
0.214,1356
-0.0904,6641
0.499,650
-0.0789,7088
0.0654,2996
-0.0694,7092
-0.282,9347
0.0908,3343
-0.193,9797
0.307,561
-0.396,10103
0.19,2013
0.0254,4787
0.134,2181
-0.00998,5918
-0.212,10780
0.128,3185
0.235,2253
0.241,1927
-0.178,7829
-0.127,9288
-0.101,7118
-0.133,9011
-0.148,8959
-0.306,9442
0.0193,4737
0.351,239
-0.167,8214
-0.145,8902
0.192,1081
-0.216,9542
0.0447,4027
-0.255,10964
0.0927,2824
-0.175,9692
0.393,1449
-0.0392,5913
-0.111,7373
-0.0796,9042
0.573,109
0.0577,2463
0.119,3171
0.137,2758
0.0255,4367
0.23,1351
-0.169,9503
-0.0448,6374
0.21,941
-0.0135,5481
0.228,624
0.0702,2749
0.0837,2542
-0.0981,7881
0.0783,3846
-0.339,10973
-0.00383,5502
0.0891,2145
0.0344,4477
0.469,488
-0.302,10326
0.0327,4355
0.0559,3621
-0.0379,7066
-0.271,9375
-0.11,7620
0.286,1411
-0.274,8945
-0.047,7040
-0.0277,6120
-0.284,9805
-0.155,8230
0.176,1287
-0.0465,6704
0.155,2004
0.116,2556
0.187,1307
-0.0102,5565
-0.448,10864
-0.0789,9253
0.117,2542
0.0645,3588
0.324,2142
0.0853,4150
0.528,575
-0.09,7890
-0.128,9794
-0.0965,6981
0.14,2928
0.378,1206
-0.438,9346
0.0377,4280
0.000435,5169
0.109,2556
-0.0736,6525
0.0364,4468
-0.153,7344
-0.091,8821
-0.0892,8989
0.693,1313
-0.268,9152
0.11,2999
-0.0379,6252
-0.101,9448
0.00488,5435
0.271,1169
0.21,2220
-0.0796,7919
0.136,3437
-0.0545,7727
0.229,394
-0.0399,7042
-0.223,10137
-0.242,10319
0.101,3358
0.238,131
0.148,798
0.14,1509
-0.156,8096
0.111,3057
-0.577,10939
-0.145,7297
0.318,1119
0.464,448
0.104,2463
-0.158,8136
-0.00434,5327
-0.0614,6916
0.0801,2086
0.031,4217
0.0794,2832
-0.217,9052
0.0536,4192
-0.147,7759
-0.161,10309
-0.133,9469
0.0989,2962
-0.022,6258
0.163,2320
0.2,1299
0.0981,2080
0.22,2589
0.00298,5056
-0.0301,5584
-0.027,5326
0.0127,4954
0.00869,4969
0.338,401
-0.121,7471
0.294,2076
0.0568,4294
0.352,96
0.0289,4673
0.065,2721
-0.201,8235
-0.244,9966
-0.143,8628
0.149,678
0.0169,4786
-0.164,8438
0.0459,4037
-0.212,7538
0.386,989
-0.109,8661
-0.0896,6784
0.0239,4718
-0.00392,5111
0.0591,4045
-0.0486,6880
0.199,639
-0.209,7758
0.073,3361
-0.0918,8315
-0.173,7880
0.414,165
0.0695,3761
-0.0278,6163
-0.0235,6095
-0.343,8582
0.84,41
0.0966,2644
-0.0119,5578
0.0344,3525
-0.161,7821
-0.104,8490
0.135,2357
0.0748,2777
0.0571,3954
-0.0118,5586
0.0524,3787
-0.0377,6952
-0.114,7249
0.258,768
0.264,432
0.0687,1227
-0.606,10961
0.172,1500
0.161,2054
0.309,1041
-0.265,10421
0.0596,4027
-0.127,9703
0.162,2728
-0.21,9682
-0.126,8252
0.0749,2917
-0.0721,7452
0.244,1650
0.11,3564
0.00558,5000
0.0751,3415
-0.234,9121
0.0279,4231
0.102,3923
-0.0749,7198
-0.427,10910
0.526,823
-0.0919,7702
0.0259,3844
0.0371,3799
0.182,1544
-0.128,8341
-0.00312,5340
0.327,240
0.0557,4298
-0.27,10644
-0.162,5409
0.266,1262
-0.0665,7354
-0.122,9617
0.514,11
0.0291,4455
0.0815,2754
-0.204,6330
0.0798,3912
-0.0201,6585
0.179,1237
-0.2,9236
-0.149,8861
-0.28,9454
0.322,464
-0.2,8930
0.0999,2951
-0.149,8982
-0.188,7600
0.0894,3435
0.0288,4331
0.145,1781
-0.0271,6760
0.00895,4859
-0.0658,6795
-0.0997,7161
-0.0556,6175
-0.243,10425
0.0288,4802
0.234,1469
-0.0995,8347
0.159,2233
-0.0949,8371
0.232,451
-0.101,8083
0.0281,4735
-0.0521,7193
0.116,2408
-0.132,7787
0.0965,2108
-0.0176,6778
-0.115,8345
0.0796,3350
-0.347,9117
0.00477,5048
-0.24,9389
-0.107,9963
-0.152,8458
-0.093,9026
0.223,768
0.0505,2779
0.0646,3840
-0.0297,6625
-0.162,9194
0.224,542
-0.284,8777
-0.0635,6308
-0.067,7637
-0.0863,7436
-0.22,9022
0.348,117
0.329,2820
-0.261,10372
0.221,962
0.308,934
-0.177,8358
0.14,2767
-0.306,10432
-0.0797,6784
-0.271,10130
0.0388,3906
0.289,215
-0.77,10857
-0.184,8784
-0.0153,5820
0.131,1916
0.211,125
0.055,4119
-0.0986,8021
0.293,1612
-0.633,8875
0.22,712
0.0132,5062
-0.248,10546
0.249,2147
-0.222,9506
-0.193,8302
0.111,2290
-0.00168,5208
0.157,1530
0.0427,4284
0.338,1167
0.101,3592
0.05,2098
0.156,838
-0.186,9576
0.205,2127
0.0511,4305
-0.0959,6777
0.128,1723
0.249,758
0.0933,2402
0.332,218
0.0396,4347
-0.204,9184
0.122,2863
-0.227,9672
0.0592,4292
0.0252,4754
0.0194,5136
0.0322,4009
-0.0608,7126
0.154,777
0.0238,4415
-0.115,9395
-0.137,9003
-0.137,7883
0.192,1160
-0.241,10731
-0.151,9111
0.0886,2217
0.419,300
0.575,433
-0.000906,5476
0.115,1925
0.0986,3438
-0.188,8964
0.0678,3175
0.0531,4320
0.0985,2547
-0.282,10822
0.0102,4769
0.163,2629
-0.137,8631
-0.34,10885
0.175,807
-0.163,10578
-0.122,8162
-0.135,6357
-0.0379,6239
-0.262,8788
0.127,3350
0.142,933
0.0299,4042
0.076,3225
0.191,1663
0.507,2489
-0.0207,6379
0.231,1353
-0.0857,7273
0.159,2452
-0.155,8397
-0.131,7388
0.0007,5086
-0.0357,7646
-0.208,10436
0.215,1577
-0.0399,6331
0.116,2895
-0.0546,7139
0.0536,3886
0.171,2602
-0.355,10438
-0.315,10672
0.155,1122
-0.0998,8052
0.0991,2686
-0.0913,7640
-0.243,10099
-0.118,6268
-0.0552,7301
-0.358,9922
0.24,3101
0.0231,4341
-0.0686,8256
-0.241,10383
-0.161,8481
0.108,2395
-0.617,10701
0.0248,4619
0.115,2323
0.0212,4994
0.409,191
-0.0296,6162
0.0177,4691
0.104,2239
0.116,1624
0.0897,3916
-0.0464,6531
0.238,839
0.0144,5151
0.137,2286
-0.0607,7906
0.235,2294
0.417,187
0.164,2026
0.551,470
0.00794,4685
-0.0954,7642
-0.136,8577
0.148,2513
-0.0396,6999
-0.0294,6244
0.0437,4437
-0.0142,5829
-0.312,9355
-0.0847,8195
0.208,1752
-0.0997,7163
-0.12,8468
-0.109,8651
0.153,1468
-0.615,10820
-0.26,9606
0.0137,4783
0.57,122
0.0208,4681
-0.136,7854
-0.052,6051
-0.105,7281
0.0297,3951
-0.0674,6881
-0.0579,6677
-0.354,10483
0.0387,4497
0.169,1315
-0.168,8760
0.124,1381
0.123,2696
-0.0682,6835
-0.175,9594
0.0659,4009
0.267,948
-0.00772,5602
-0.14,9488
0.00503,5191
-0.271,9599
0.0483,4408
-0.0486,5125
-0.0234,6227
0.21,749
0.0716,3133
-0.295,9757
0.0839,3461
0.167,1379
-0.0774,7927
-0.0374,6190
0.122,2829
-0.21,8515
0.19,1118
0.171,676
-0.102,7832
-0.171,7724
-0.0749,7396
-0.216,10006
-0.161,8521
-0.133,9423
0.109,1292
-0.0801,8211
-0.0307,5450
0.274,689
0.063,3941
0.0633,3377
0.184,1311
0.0829,3085
-0.381,9892
-0.157,8621
-0.0641,6703
0.164,3165
-0.0944,7806
-0.0405,7171
0.118,2690
-0.14,8183
-0.1,9067
-0.0896,6671
-0.202,10686
-0.0946,8716
0.177,1721
0.113,1451
0.0126,4974
0.0492,4276
-0.0572,9074
-0.0632,7591
0.0501,4491
-0.0989,9264
0.383,1253
-0.0368,6842
-0.0938,8918
0.112,2008
-0.142,8832
0.21,102
0.021,4830
0.0812,2504
-0.125,9457
0.341,132
-0.0907,6459
-0.266,10308
0.0891,3453
-0.139,5682
-0.375,10495
0.153,2933
-0.192,9681
-0.0803,5616
-0.447,9617
-0.0684,7166
0.263,1800
-0.184,9363
0.253,764
0.32,222
-0.0111,5488
-0.0989,7819
-0.0408,6245
0.353,169
0.168,3490
-0.457,10257
-0.11,6714
0.219,2080
-0.0496,6747
0.184,2550
0.584,164
-0.134,10254
-0.139,8721
0.807,107
0.066,1804
0.226,358
-0.000191,5194
0.017,4875
0.0308,4650
0.168,3117
0.149,1887
-0.0859,7789
-0.088,7356
-0.301,7614
0.175,2774
-0.268,10254
-0.0325,6434
-0.0166,5995
-0.104,7974
0.156,2168
-0.426,9186
-0.0465,6347
-0.148,8696
0.00474,4967
0.249,477
-0.198,9951
-0.0279,6240
0.235,670
0.0849,2650
0.167,2026
-0.0831,7195
0.184,1879
0.00129,5516
0.495,803
0.0779,3417
-0.193,9183
0.302,1118
-0.242,10652
0.0409,4300
0.243,936
0.0151,4573
0.0404,4026
0.236,1224
-0.247,10543
0.0507,4621
-0.115,9402
0.0861,2927
0.0385,2937
0.245,1798
0.0161,5138
0.539,660
0.334,939
-0.178,10567
0.0304,4356
-0.137,9726
0.221,1111
0.134,1272
0.248,823
0.114,1418
0.00484,5373
0.223,1597
0.0583,4431
0.609,847
-0.257,9700
0.0722,3726
-0.0312,6721
0.00655,5170
0.187,2155
-0.00296,5215
0.654,542
0.059,3897
0.0773,2099
0.0302,4502
-0.064,7592
0.0852,2309
0.18,2766
0.262,221
-0.0999,9290
-0.302,8035
-0.682,10810
0.22,3035
-0.489,10071
-0.0956,7829
0.159,2093
-0.0269,5911
0.235,733
0.156,2727
0.0305,4296
0.0845,2139
-0.158,9410
0.29,1124
0.14,1542
-0.0235,6186
-0.73,9468
0.224,1062
0.0392,4132
-0.0471,7216
0.0931,1803
-0.138,8101
-0.0679,7232
0.0636,3742
-0.156,9577
-0.0198,5753
0.141,1999
-0.31,10435
-0.151,9974
0.178,602
-0.0365,6763
0.15,1741
-0.149,7114
-0.151,9562
-0.534,10992
-0.121,9630
0.147,1544
-0.346,10371
0.107,2357
0.00626,5158
-0.352,10006
-0.0527,8214
0.179,864
-0.0253,5946
-0.23,8405
0.146,3576
0.455,730
0.104,1938
-0.219,9621
-0.241,9167
-0.0145,5295
0.0315,4641
-0.279,10382
-0.147,8965
-0.0871,8181
0.415,2453
-0.178,9656
-0.396,10676
-0.275,8906
0.0667,3239
-0.0955,7714
-0.00844,5294
0.0686,3979
0.644,275
-0.092,7060
0.153,1785
0.024,4386
0.0842,3545
-0.0368,6580
-0.0254,5829
-0.00287,5588
0.0324,4101
-0.00846,6111
-0.0739,7218
-0.457,10977
-0.0188,5857
0.168,1280
0.213,755
-0.196,10461
0.261,1400
-0.196,8955
-0.212,6885
0.052,4098
0.0234,4605
-0.0459,7084
-0.47,10837
-0.158,9868
-0.206,5285
0.041,3429
0.134,1171
-0.0284,6478
0.364,497
-0.162,9005
0.286,2427
0.924,44
-0.000351,5269
0.169,2363
0.214,3009
0.117,2870
0.0598,4167
0.125,2166
-0.281,10063
0.0911,2445
0.025,4604
-0.624,10871
0.395,4
-0.0272,5825
-0.0786,7940
-0.0838,7772
-0.0985,6282
-0.26,8594
-0.483,9548
-0.146,8630
-0.12,8959
-0.0425,6435
-0.197,8406
-0.266,9790
0.0611,4424
-0.0713,7419
-0.15,10256
0.198,1785
-0.0958,7935
0.0141,4772
-0.204,9186
0.366,372
0.127,2749
-0.0522,7718
0.318,265
-0.232,10086
0.0581,4347
-0.0498,5910
-0.0952,8543
0.142,1964
-0.0836,7537
-0.139,8803
-0.0486,6486
0.0822,2810
-0.0257,6136
0.0477,3224
-0.0414,6109
0.319,879
0.192,1909
-0.0344,5670
0.0495,4157
0.0996,1787
-0.118,8381
0.195,331
0.12,3900
-0.0295,5360
0.085,3402
-0.0329,6151
0.0034,4495
0.0136,4922
-0.00513,5369
0.102,2287
0.068,4104
-0.0997,8387
-0.0663,7464
0.141,2753
-0.305,10211
-0.111,8359
0.0668,4225
0.0409,4057
-0.0461,6772
0.124,2133
0.0974,3784
0.218,1438
0.00898,3973
-0.0239,5957
0.055,3648
0.0627,3464
0.00659,5013
-0.0548,7179
0.0404,4286
0.0543,3805
-0.14,8938
-0.367,9810
-0.234,9628
-0.105,6598
-0.23,8116
-0.102,8808
0.398,45
-0.0633,7401
0.0361,4391
0.322,2120
0.157,1692
0.0552,3655
0.142,2036
-0.157,7264
-0.177,10114
-0.184,8974
0.0333,4375
0.573,186
-0.0156,5549
0.122,3102
0.0043,5090
0.359,493
-0.432,10902
0.1,2092
-0.00295,5489
0.154,2083
0.0953,3195
-0.357,8913
-0.0016,5182
-0.0931,7845
-0.0754,8125
0.0214,4871
-0.432,10407
0.245,2385
-0.225,8935
-0.141,9092
-0.0729,7712
0.402,1150
-0.155,9042
0.135,2810
0.235,1858
-0.0842,7837
-0.0673,7280
0.0574,4075
0.256,1300
-0.365,10827
0.321,676
-0.107,7159
0.0407,3873
-0.231,9193
0.399,533
0.097,4125
0.299,1515
0.125,2173
-0.151,10079
0.109,2538
0.154,2973
-0.0585,7746
-0.316,9948
-0.12,8823
-0.0679,9822
-0.227,10764
-0.159,7557
-0.155,7504
0.12,1727
-0.161,8911
0.0557,3099
-0.0999,7239
-0.256,9327
-0.469,9506
-0.0785,6368
-0.0364,6426
0.239,1734
0.368,340
-0.259,9242
0.409,383
-0.625,10293
-0.144,8774
0.0677,3770
0.221,1994
-0.196,9866
0.294,1398
0.121,3018
-0.027,6116
-0.264,10791
-0.0193,5781
0.0464,3946
0.0454,3581
-0.278,10588
0.344,833
-0.216,10362
-0.00973,5800
0.0187,4815
-0.0161,5763
-0.209,8644
-0.012,5805
-0.0107,6138
0.0499,3996
0.284,396
-0.819,10948
0.0228,4604
-0.37,11020
0.4,349
-0.163,7820
-0.105,8590
0.172,2004
-0.0348,7602
0.175,1734
-0.0944,7437
0.0121,4946
0.0956,3296
-0.264,9657
-0.142,8252
-0.12,8814
-0.00262,5572
0.0315,4906
-0.0974,8043
-0.124,7887
-0.0336,5408
0.229,245
0.0346,4218
0.0121,5187
-0.0405,7089
0.422,1720
0.0585,3303
0.321,984
-0.148,9469
-0.0564,6490
0.199,1677
0.165,2961
-0.0043,5101
-0.139,7962
0.0788,3464
0.0234,4688
0.134,1774
-0.277,9118
-0.369,9969
0.0711,2084
-0.0653,8059
-0.0044,5461
-0.178,9859
-0.145,9814
-0.0217,6075
-0.154,9502
0.0458,4055
-0.233,9419
-0.25,9562
0.395,1406
-0.0668,6967
0.021,4502
-0.119,9063
0.06,4070
0.0983,3655
-0.34,9049
0.0562,3712
0.441,28
0.0266,4929
0.337,433
0.235,3029
-0.0999,5260
-0.291,10266
0.0922,3514
0.167,2066
0.128,3877
-0.601,10753
-0.158,9220
0.0717,2890
-0.154,9212
0.111,3317
0.269,1079
-0.0466,6227
0.0713,3516
-0.107,8523
-0.111,9449
0.0699,3706
0.0672,3701
0.0169,4974
-0.368,9994
-0.215,10570
-0.0447,7347
0.156,1024
-0.049,6168
0.138,3114
-0.154,8656
0.0817,2895
0.119,664
-0.161,6802
-0.283,9953
0.0746,4207
0.206,875
-0.138,9747
0.0767,3180
-0.101,8613
-0.065,6203
0.273,810
0.278,1269
-0.154,10745
-0.0419,6855
0.00466,5208
0.291,876
-0.274,10783
0.089,3502
0.0649,3008
-0.09,8198
0.0114,4763
-0.0875,7108
0.294,1151
-0.144,7720
-0.0252,6349
0.115,1116
0.182,1327
-0.368,10197
-0.0693,6702
0.698,150
-0.0748,8693
-0.122,9297
-0.0507,6664
0.0588,4006
-0.0998,7442
0.0713,4072
0.333,115
-0.151,8967
0.0798,3527
-0.0208,5847
0.0318,4386
-0.237,9926
0.15,1393
-0.0599,7303
0.197,2465
0.244,939
0.0249,4678
0.138,2596
-0.18,10005
0.0364,3123
-0.0709,7325
-0.161,7978
-0.0456,6291
0.192,1797
-0.109,9355
-0.283,10216
-0.135,9108
-0.328,10528
-0.0553,7951
-0.215,9379
0.0332,4091
-0.0934,8189
0.0163,4766
-0.123,9283
-0.301,9859
0.833,982
0.0132,4985
-0.068,7299
-0.164,8279
0.332,1328
0.705,501
-0.125,6368
-0.374,10732
-0.0818,8224
-0.125,7843
-0.107,8328
0.492,1737
-0.408,9199
0.159,2254
0.0626,3076
-0.173,9660
-0.195,9561
-0.165,8093
-0.137,8924
-0.115,8855
-0.182,8771
-0.0125,5478
-0.462,10362
0.36,1204
0.356,971
0.157,1761
-0.0278,5831
-0.055,6548
0.0574,4079
0.077,3526
-0.214,10329
0.175,103
-0.0513,7127
0.359,661
-0.238,9164
-0.0104,5496
-0.1,5115
-0.0515,7527
0.0853,3348
-0.264,10863
-0.256,8669
-0.127,7211
-0.188,9910
0.0774,2845
-0.309,10227
0.354,1357
0.153,2031
0.118,3044
-0.136,8556
0.202,1188
-0.0841,7333
-0.177,9792
0.346,634
-0.364,9819
-0.192,7360
-0.0211,5990
-0.255,9904
-0.0464,6423
-0.0379,5635
0.533,1776
-0.265,10983
0.102,2446
-0.195,9134
-0.0182,5960
-0.047,6526
1.49,862
-0.0116,5724
-0.156,9297
0.323,419
-0.265,10294
0.0483,3368
0.246,760
-0.264,10513
-0.126,8317
0.00922,5011
-0.0395,6524
0.0746,2771
0.0845,3401
0.0812,3521
-0.228,10365
0.0448,3659
-0.00943,5673
0.0923,3341
0.295,851
-0.163,7492
-0.0487,6813
0.11,1973
0.117,1600
-0.0978,7116
-0.372,10702
-0.205,9129
-0.0753,7762
0.179,1087
0.154,1643
0.171,1678
-0.343,10287
-0.275,10342
-0.0955,8969
-0.217,10942
-0.174,8601
-0.358,10582
0.171,1084
-0.221,10509
-0.199,10893
0.077,3062
-0.123,8496
0.126,3534
-0.161,7771
-0.181,8078
-0.0132,6093
-0.0216,6530
0.242,2321
-0.0297,6338
-0.679,10497
0.0145,5017
0.0105,4907
0.0664,2367
-0.0504,7133
0.0856,2987
-0.0853,9505
-0.265,9858
-0.0181,5580
-0.192,8897
-0.254,10649
0.115,3364
-0.0062,5478
0.282,1139
0.121,1918
-0.0217,5956
0.206,1420
-0.024,6009
0.00421,5289
0.178,2239
0.181,1564
-0.236,10610
-0.278,9607
0.0516,4130
0.248,1710
0.688,1308
-0.0249,6418
-0.083,6998
0.249,1176
-0.257,9273
0.0455,4707
0.665,538
-0.00866,5974
-0.0146,5901
0.0282,4432
-0.0677,6800
0.0734,3993
0.301,1105
0.189,1254
0.212,2612
-0.134,8391
-0.198,10033
0.035,4081
0.00279,4900
0.213,1034
0.149,1429
-0.0161,5948
0.473,477
0.844,0
-0.281,9023
0.0912,3377
-0.304,10531
-0.000986,5225
-0.186,9748
-0.122,8101
0.0433,4099
0.0513,3980
-0.0583,9130
-0.126,6543
-0.233,10322
-0.167,8964
-0.0728,8497
0.218,1041
-0.0149,6171
-0.327,10573
-0.13,6843
-0.248,10282
0.258,2150
-0.324,10275
-0.129,7678
0.089,4012
-0.246,9461
0.39,734
0.197,2293
-0.435,10660
-0.083,8431
0.113,3016
-0.107,8507
0.265,1167
0.241,1140
-0.079,8247
0.0696,1549
0.221,975
0.0722,3043
-0.319,8383
-0.0518,6850
0.319,614
-0.0352,6135
-0.404,10724
0.374,705
-0.0741,6086
-0.294,8813
0.0457,3339
-0.0424,6655
0.0505,4227
0.297,1819
0.218,1696
-0.0382,6037
-0.108,9449
0.0118,4990
-0.123,7058
-0.0634,6525
-0.199,8964
-0.155,6829
-0.0976,8764
-0.0772,7248
-0.0358,5550
-0.441,10932
0.0972,3476
-0.24,9549
-0.234,10268
0.182,624
0.045,4181
0.381,734
0.205,1936
-0.0742,7915
0.084,3009
-0.0595,6663
-0.0413,6863
0.0727,3593
-0.235,9617
-0.106,7184
-0.0533,7087
0.00289,5190
0.156,1788
-0.022,5779
0.0447,4447
-0.115,8474
0.233,697
0.425,372
-0.118,6613
-0.456,11011
0.0882,2948
-0.222,9334
0.0658,2729
0.221,1745
-0.122,8598
-0.2,8914
0.227,1151
-0.0185,5180
0.108,991
0.0381,3956
-0.534,10701
0.0917,2128
-1.42,10775
-0.494,9521
0.068,2982
-0.125,8662
-0.135,9066
-0.414,10514
-0.665,10983
0.0284,4401
-0.242,10549
0.062,3332
-0.339,9849
0.292,1524
0.119,3751
-0.00417,4968
0.192,1961
-0.0308,6410
0.281,1484
-0.173,9304
0.0539,4484
0.412,750
-0.111,9964
-0.106,7669
-0.101,6919
0.0778,3600
-0.281,9313
-0.311,10747
-0.0109,6106
0.0557,3022
-0.198,8103
-0.188,9660
-0.293,9459
-0.376,10559
-0.024,5317
-0.16,10657
-0.00569,5337
0.0926,3135
-0.0417,6333
-0.0725,7360
0.0892,3274
-0.0294,7384
-0.11,7841
-0.218,10350
0.00507,5273
-0.263,10129
-0.0707,8301
-0.236,9552
0.0106,4757
-0.0194,5915
-0.272,10588
-0.145,8309
0.231,893
0.131,1900
-0.106,9122
-0.16,8932
-0.29,10762
0.169,2519
0.111,2959
-0.137,9585
0.165,1647
-0.239,9404
-0.068,6635
-0.0782,6079
-0.503,10271
0.0424,3209
0.0287,4359
-0.715,10297
-0.148,7662
-0.453,8132
-0.0863,6854
-0.0785,7974
-0.0693,8880
-0.152,7613
0.305,490
0.163,2657
0.33,665
-0.0553,7414
-0.033,6777
-0.00952,5072
0.239,564
-0.00773,5123
-0.0717,6304
0.0265,4492
-0.0456,6386
-0.0647,6645
0.138,2189
-0.00718,5414
-0.311,9525
0.2,635
0.0961,2200
-0.118,9069
-0.202,9260
-0.337,7090
0.0372,4280
3.69e-05,5374
0.192,533
-0.169,7806
-0.331,9030
-0.00147,5450
-0.0383,7049
0.063,2240
0.209,1720
0.0393,3953
0.162,2261
0.113,3342
-0.0116,5448
0.193,522
-0.12,8486
-0.303,8988
-0.256,10702
-0.26,8482
0.053,4115
0.231,1224
-0.0426,6738
0.0463,3660
-0.0347,5955
0.0674,2990
-0.117,8255
-0.0822,7088
-0.148,9623
0.24,1357
0.0401,4291
-0.00915,5144
0.0336,4378
-0.159,10541
-0.0235,5786
0.223,1476
0.0587,4363
0.0345,4749
0.212,666
-0.0633,7226
-0.0945,8845
0.0108,4923
-0.266,10192
0.174,1880
-0.297,8328
0.156,2456
-0.0173,6015
0.0404,4597
0.00934,5001
-0.164,8868
0.0916,4026
-0.0416,6677
-0.0589,6800
-0.0126,5814
-0.0602,6704
0.263,827
-0.0989,8749
0.114,1912
-0.186,8697
0.0893,4077
0.213,984
-0.171,4883
-0.0819,5634
0.0382,4692
-0.105,9209
-0.19,10209
-0.203,9142
0.0205,4653
-0.288,10509
-0.235,10777
-0.0572,8477
-0.0795,6812
-0.0511,7375
0.143,1857
-0.374,10867
0.00256,5178
0.27,798
-0.271,9923
0.139,2880
0.0827,3547
-0.0787,8557
0.165,1500
0.0562,3345
0.133,2447
-0.0993,8040
-0.128,7496
-0.0422,6149
0.0542,3023
-0.0729,6727
-0.706,8586
0.0611,4015
-1.19,10984
-0.294,10537
0.0371,3580
-0.437,10864
-0.00688,5178
-0.267,8980
0.189,540
0.0316,4655
-0.149,9927
0.0778,2694
0.0572,3918
0.0524,3602
0.183,2266
-0.264,8579
0.0493,3400
0.121,2514
-0.155,8099
0.202,1302
-0.0109,5633
0.252,1313
-0.189,9938
-0.0604,6860
0.102,2149
-0.0389,5489
-0.018,5973
-0.0502,6845
0.0761,2474
0.209,531
-0.186,9133
-0.284,10940
0.172,2560
-0.016,5735
0.00948,5165
0.0794,2551
-0.14,8106
0.0292,4295
-0.149,9207
-0.194,9601
0.19,2736
-0.273,10802
0.194,1723
0.248,510
0.245,893
-0.172,8625
-0.0681,7830
-0.183,9622
0.044,4203
0.182,1321
-0.701,10863
0.556,254
-0.0552,6785
-0.144,8271
0.434,1182
-0.183,9472
0.143,1786
0.0297,4710
0.0739,3737
-0.0304,6587
0.296,908
0.0331,4689
0.167,2982
-0.26,9205
-0.0864,8114
-0.1,8715
-0.397,10843
-0.293,10047
0.0919,3734
-0.212,8585
-0.322,10919
0.0436,4176
0.0427,4479
0.734,519
-0.553,7282
-0.199,6693
0.146,1759
-0.117,6186
-0.42,10409
-0.0427,6626
-0.311,9184
-0.29,10289
0.0945,1961
0.0243,4356
-0.0893,6170
0.0575,3721
0.384,37
-0.379,10331
0.293,551
0.0664,2314
0.0988,2968
0.0451,4185
-0.267,9553
-0.0189,5688
0.123,1639
-0.00779,5636
-0.279,10011
-0.417,10999
-0.25,10034
-0.101,6755
0.00456,5365
-0.27,10616
0.0385,4341
0.107,3158
-0.359,10924
-0.361,10462
0.153,1341
0.0953,2976
-0.021,5646
-0.137,8871
-0.0307,5743
-0.105,7580
0.25,633
0.115,1539
1.39,695
0.353,1440
0.0638,4184
0.0354,4358
-0.055,7265
0.277,892
0.018,4726
-0.228,9282
-0.144,7572
0.119,3297
-0.011,5564
0.02,4057
-0.212,9570
-0.212,8106
0.0169,4688
-0.121,8955
-0.0315,6402
0.0991,2227
0.449,223
-0.0535,7745
0.0385,3903
-0.0219,5238
0.18,1439
-0.0247,6631
-0.0163,5838
0.0719,4173
0.2,2245
0.285,1832
-0.000259,4943
0.135,2761
-0.194,9175
-0.171,8543
0.236,1568
0.211,1498
-0.0302,5491
0.0644,3288
-0.859,9370
-0.321,7596
-0.54,10072
0.29,570
-0.101,7973
-0.218,9691
-0.000124,5448
-0.0859,8269
-0.109,9778
-0.0142,5793
-0.229,9262
0.142,2865
-0.13,6959
-0.326,9882
-0.211,9518
0.131,4151
-0.476,10664
-0.0631,6975
-0.291,9499
0.0372,4509
-0.239,9896
0.361,155
0.126,2460
0.568,304
-0.303,9928
-0.0375,6735
0.151,2133
0.217,2113
0.13,2296
0.0442,4368
-0.205,8624
0.0729,2369
0.0658,3151
-0.101,7165
0.486,22
-0.416,10317
0.306,687
-0.102,9469
-0.249,10390
0.143,2536
-0.145,9121
-0.48,10946
0.101,3577
-0.118,9195
-0.0453,6469
0.166,1992
-0.073,6565
2.5,1
-0.607,10989
0.225,1023
0.0375,4004
-0.133,8357
-0.0507,6359
0.0363,4460
0.051,4516
-0.191,10116
-0.0257,5750
-0.161,9457
-0.00312,5230
-0.176,7435
0.0416,3959
0.144,2169
0.311,514
0.21,1964
0.0912,3395
0.162,887
-0.14,8639
0.0477,3693
0.0897,1300
-0.0395,6118
-0.02,5628
0.614,114
0.167,2454
0.199,2198
0.194,1027
0.244,1631
-0.153,8035
0.119,2795
0.376,1175
-0.0221,5706
-0.021,6010
0.246,1773
-0.32,6889
-0.178,8183
-0.297,9632
0.105,2966
-0.0726,6984
-0.00862,5571
-0.0717,6473
0.277,762
-0.0678,7527
-0.229,10160
-0.138,7428
-0.114,8589
-0.0502,6618
0.318,750
0.341,424
0.0432,3923
0.213,1531
0.0804,2894
0.129,3772
-0.0292,5499
-0.176,10014
-0.195,10193
0.0242,4867
0.576,405
0.136,1222
0.132,2090
-0.279,10926
0.121,2029
0.0731,1915
0.63,90
0.135,3385
0.158,2992
-0.217,9791
-0.0704,6954
0.0266,4627
0.406,208
0.0756,2791
0.106,1993
0.0872,2671
0.221,271
-0.32,10990
0.0856,3403
0.419,439
0.167,3067
-0.751,9898
-0.121,8776
-0.0502,6680
-0.2,10576
-0.351,10137
-0.111,8054
0.302,906
-0.0663,7748
-0.0786,6387
-0.0489,7014
-0.0482,6211
-0.202,8231
0.0575,2943
-0.00833,5803
-0.00746,5444
-0.0438,5989
0.0686,4058
-0.248,8950
-0.0302,6763
-0.172,8937
-0.701,10661
1.38,701
-0.253,6170
-0.269,9422
-0.159,7991
-0.432,10647
0.0469,4664
-0.121,9191
0.0624,4467
-0.107,7330
-0.0908,8150
0.0165,5034
0.0183,4930
-0.0909,6189
-0.0947,6550
-0.289,7440
-0.189,7225
-0.142,7249
-0.293,9293
-0.0514,6714
-0.358,10005
0.134,3111
-0.246,10946
0.0324,4215
0.482,444
-0.0837,7533
-0.00699,5668
-0.263,8142
0.00307,5208
-0.0681,7588
-0.0115,5555
-0.101,7643
-0.0702,7023
-0.0543,6432
0.158,2234
0.16,1418
0.475,1697
0.0218,4624
0.0775,4289
-0.043,6278
0.077,3289
0.0979,2369
0.1,3843
0.0175,4808
-0.224,10122
-0.0705,6976
0.116,878
-0.0687,7801
0.422,2153
-0.136,7926
-0.123,7319
-0.207,9083
0.019,4786
0.108,1668
0.072,2980
0.102,2694
0.358,2016
0.0418,3276
0.0558,4051
-0.178,10660
-0.0768,8000
0.259,2150
-0.00832,5316
-0.165,9170
-0.142,8298
0.328,299
0.192,738
-0.0969,7213
-0.0275,6078
-0.0805,7154
-0.0218,6304
0.233,288
-0.144,8998
0.427,318
-0.0347,6038
0.0972,3179
0.0699,3511
-0.251,10697
0.0354,4190
0.145,3259
0.0736,3958
0.108,3759
0.0462,3981
0.539,17
0.172,1955
-0.0699,7090
-0.596,10238
-0.365,9915
-0.164,10039
0.0427,3738
-0.0213,5881
0.179,1238
0.000157,5387
-0.061,6131
-0.0298,6816
-0.0405,6656
0.285,1075
-0.0956,7372
-0.121,7459
-0.406,10671
0.102,2793
-0.241,10659
0.0456,4004
-0.152,10687
0.0318,4798
0.258,964
0.0464,3614
-0.163,10130
0.352,589
-0.142,8820
-0.301,8529
0.824,86
0.216,1212
-0.0682,8319
0.1,2623
0.056,4308
-0.539,8934
0.0207,4790
0.129,3474
0.0254,4387
0.195,3384
-0.111,8271
0.00849,5292
-0.187,8394
0.014,5199
0.0933,3676
-0.204,9348
-0.174,9563
-0.564,10262
-0.14,9510
-0.135,9736
-0.158,10159
0.525,454
-0.125,7962
0.24,2409
0.275,429
0.411,30
-0.0968,9330
-0.182,9481
-0.306,10332
0.301,49
-0.126,8149
0.202,1122
-0.139,8129
0.792,328
-0.00325,5537
0.0524,4434
-0.0923,6096
0.157,2544
0.0394,4457
0.095,2274
-0.0973,8504
0.232,814
0.213,2329
0.0473,3865
-0.0633,6479
-0.187,8911
0.183,1158
-0.315,9980
-0.231,8759
0.204,2937
-0.453,10681
-0.0105,5512
-0.359,9778
1.73,818
0.152,1609
0.00952,5103
0.129,2031
0.41,109
-0.063,6521
0.218,2330
-0.261,9248
0.0181,5069
-0.0674,7369
-0.227,7739
0.14,1518
-0.145,8151
-0.00353,5330
0.104,2392
0.277,551
-0.0106,5864
0.277,332
0.255,1547
-0.211,9617
-0.0485,7163
0.0389,3915
-0.115,7983
-0.241,9478
-0.391,10512
0.0466,4660
0.126,382
-0.194,9191
-0.229,9615
0.306,1225
-0.224,8825
0.106,3262
0.0448,4227
-0.00632,5766
-0.0637,6207
0.762,195
-0.144,7934
-0.0101,5356
0.0585,3021
0.0866,1942
-0.35,10275
-0.189,7714
-0.0214,5698
-0.0814,6149
0.252,2534
-0.09,9062
0.282,1137
0.0571,3809
-0.733,10571
2.04,524
-0.298,11026
-0.0111,5563
0.133,2546
0.0176,4771
-0.114,8299
-0.0846,6575
0.0355,3825
0.0855,2214
0.0231,4571
-0.243,10039
-0.81,10506
-0.189,9245
-0.185,9345
0.113,2142
0.264,1200
0.0508,4637
-0.0214,5565
-0.116,8255
0.0046,5377
-0.0844,8173
-0.175,8167
-0.298,9217
0.0934,2868
-0.277,10797
0.318,358
-0.146,7409
0.308,1111
-0.171,8894
0.00617,5184
0.19,2093
-0.0637,6938
0.0588,2620
-0.0219,5584
-0.0727,7230
0.0256,4982
-0.214,7409
-0.125,9928
-0.0901,7893
0.0534,3978
0.0349,4510
0.0444,4592
0.00791,5061
0.00491,5121
-0.395,10846
0.19,1856
-0.14,8965
-0.233,9334
-0.0238,6463
0.0299,4545
-0.0147,5720
0.0887,3386
-0.353,9956
0.00791,4887
0.0556,3659
0.112,2187
-0.0269,6454
0.357,321
0.385,691
-0.149,8309
-0.069,7408
0.146,1726
0.215,1169
0.231,1826
-0.25,10161
-0.236,10981
-0.288,10760
-0.153,9510
-0.0975,8493
-0.0853,6399
0.116,3251
0.0101,4856
0.0713,3610
0.0473,3965
-0.0899,8800
-0.116,7369
-0.354,9941
-0.216,9402
-0.289,9523
0.154,1378
0.0193,4727
-0.343,10358
0.308,1174
0.233,1763
0.451,1172
0.00903,4941
-0.182,9707
0.265,779
0.118,3481
0.0914,2709
-0.0303,6032
-0.119,9528
-0.123,8614
-0.0969,7755
-0.0719,6682
-0.3,9841
0.276,1872
-0.25,10459
0.142,1425
0.332,1101
-0.124,7698
-0.307,10056
0.0143,4605
-0.159,9385
-0.0203,6430
0.192,2271
-0.184,7703
0.141,2585
0.138,3139
0.0784,3028
-0.15,10535
-0.143,7843
-0.0602,6146
0.128,2587
-0.242,10203
-0.14,8847
0.0939,1596
-0.25,10009
-0.305,10789
-0.0722,6738
0.212,608
0.00469,5041
-0.051,8102
0.0139,5140
0.148,1150
0.0913,3368
-0.187,7124
0.168,972
-0.113,8527
0.11,1991
0.0376,4185
0.12,3360
-0.00925,5314
-0.0532,7074
-0.00317,5136
0.133,2141
0.252,2752
-0.0255,5199
-0.121,7968
-0.14,9011
0.275,721
0.0328,4832
0.422,836
0.133,2136
0.0261,4742
0.0512,3730
-0.073,7591
-0.324,10775
-0.0738,7074
0.0814,3195
-0.113,7880
0.0587,2779
0.00772,5034
0.293,1399
-0.134,8850
-0.0184,5710
-0.224,8471
-0.159,9746
-0.111,8634
0.273,1574
0.527,429
-0.159,8897
-0.457,9385
0.311,392
-0.158,10657
-0.0609,6607
-0.188,8182
-0.135,8411
0.241,1091
-0.249,10625
-0.0884,7903
0.00593,5123
0.198,1590
0.152,2450
-0.0609,6910
-0.136,9298
-0.142,7189
-0.0422,6668
-0.0972,7480
-0.229,6358
-0.0956,10111
-0.000658,5612
-0.239,10801
-0.0463,6277
-0.0741,7822
0.0982,3772
0.0106,5248
0.209,687
-0.118,7165
-0.233,9382
-0.0502,6388
-0.212,8646
-0.108,7898
0.0697,3564
0.00237,5182
0.34,101
0.0932,3545
0.00804,4960
-0.0726,8163
-0.103,9514
0.145,3269
0.094,3581
-0.00823,5462
0.386,1919
-0.119,9648
-0.0113,5887
0.119,3228
-0.00138,5338
-0.267,9004
0.52,1085
0.0963,1371
-0.286,10656
-0.0114,5765
-0.0646,6607
-0.33,10350
-0.194,10223
0.138,2056
-0.244,10767
0.159,2861
0.0681,2895
-0.0879,6030
0.343,795
0.0967,2845
0.0519,3485
-0.281,10101
-0.432,10988
0.364,519
0.38,1012
0.135,1589
-0.234,7928
-0.0537,6327
-0.0287,6094
0.451,789
-0.639,10128
0.139,2097
-0.0674,6783
-0.364,8703
0.316,1993
-0.426,10383
-0.105,7161
0.0171,4718
0.159,1324
-0.0994,7494
0.00907,5340
0.0493,2620
0.0248,5008
-0.0468,7182
0.0296,4352
0.121,3751
-0.223,4540
-0.13,6912
-0.24,7071
-0.304,10084
-0.188,9969
-0.157,8007
0.00979,4988
-0.195,10448
0.178,1950
-0.232,10541
-0.1,8701
0.125,2682
0.0251,4831
0.437,400
-0.296,6658
-0.00682,5542
-0.236,10915
0.204,1067
0.0284,4458
-0.106,7686
-0.367,9879
-0.102,8018
-0.0687,10001
-0.309,8391
-0.273,10534
-0.367,8520
0.248,1798
-0.0347,6477
-0.00716,6076
-0.336,7585
0.0686,4161
0.0377,4130
-0.234,10371
0.00529,5068
0.00771,5059
-0.017,7629
0.0371,4293
-0.216,10797
0.379,598
0.157,885
-0.0416,7095
-0.0365,6071
0.0225,4791
0.266,956
0.121,1688
0.00458,5331
0.0963,2783
-0.314,9295
0.0384,4422
-0.188,7776
-0.101,6883
0.0788,3369
-0.14,10436
0.00637,5016
-0.246,10007
0.0122,5038
0.233,2866
0.266,3186
-0.0962,7831
0.0872,1677
-0.0629,6352
-0.0623,6268
0.0249,4808
-0.894,10929
0.0978,3014
0.0102,4971
0.478,365
0.0278,4726
-0.045,6655
0.17,3468
0.178,1404
-0.282,10079
0.0956,1795
-0.362,10602
0.0539,3911
0.207,2436
-0.033,6742
0.00624,4853
0.337,378
0.146,2494
0.395,1463
-0.18,6512
0.274,3
0.0254,4538
0.00355,5019
0.0454,3998
0.397,550
0.0334,4786
0.206,1481
0.19,3078
-0.0738,6435
-0.496,10811
-0.256,9425
0.0251,4586
0.0428,4150
-0.0126,6371
-0.234,8434
0.108,1417
-0.0247,5329
-0.268,8254
0.315,425
0.185,1843
0.0511,3980
0.0334,4547
0.296,2013
0.0403,4054
-0.0232,5586
-0.112,10205
0.0426,4129
0.224,1947
-0.12,7852
-0.0307,5740
-0.201,10082
-0.112,7991
-0.197,9284
0.146,2858
-0.198,10887
0.108,3196
-0.0906,8439
0.197,549
-0.157,9112
-0.469,10929
-0.0602,6231
-0.0154,5419
-0.143,8898
-0.138,10143
0.0827,3590
-0.117,9050
-0.425,9565
0.157,1836
0.23,1258
-0.0877,6878
0.0301,4498
0.248,2250
-0.118,8486
-0.0152,5694
-0.227,10604
0.256,1063
-0.0599,7912
-0.00926,5292
0.0319,4633
0.0924,2281
-0.129,8822
0.597,362
0.0127,5077
-0.354,10915
0.209,899
0.0087,4936
-0.0197,6056
-0.0611,7556
0.183,2138
0.146,3057
0.379,399
0.479,327
-0.0532,6567
-0.231,9356
-0.0793,6595
-0.00515,5331
-0.0726,6282
0.0906,3176
-0.117,7983
0.0605,3792
0.259,1445
-0.0587,4972
-0.0179,5529
0.264,751
-0.0622,7047
-0.399,8570
-0.415,10358
0.112,3663
0.795,407
-0.648,10075
-0.258,8816
-0.159,9582
-0.152,7525
-0.00577,5451
-0.0733,8614
0.0444,3513
0.181,1567
-0.124,6758
-0.21,7523
-0.392,11015
-0.00743,5836
-0.0169,6088
0.074,3569
-0.107,8643
-0.0243,6164
0.339,837
0.159,2020
-0.0329,6854
-0.391,9747
0.0457,4070
-0.125,9848
0.164,3002
0.29,569
0.113,1650
0.347,1534
-0.0383,5717
0.128,2651
-0.0787,7096
-0.109,8241
0.0418,4449
0.467,526
0.0248,4422
0.0922,2995
-0.278,8549
-0.0286,6465
-0.00818,5470
-0.3,9237
-0.113,6710
-0.19,8647
-0.203,8757
-0.0129,6063
-0.167,9355
0.329,1832
-0.346,10472
0.379,424
-0.159,8615
-0.00737,5487
0.0921,1823
-0.183,10314
-0.143,7566
-0.253,7047
0.149,2171
-0.13,8470
-0.0906,9335
-0.148,8800
0.146,3430
0.103,3728
-0.00322,5180
0.101,2268
0.308,485
0.323,430
-0.108,7711
-0.259,9850
0.178,1483
-0.00898,5633
-0.0768,7203
0.132,2692
-0.00985,5567
0.31,1398
0.316,933
-0.0664,7419
0.0684,3399
-0.235,9929
-0.127,9347
-0.0135,5665
0.141,693
0.0509,3911
-0.15,9460
0.286,1021
0.0691,2513
-0.16,9458
-0.186,9488
-0.0352,6976
-0.0397,6479
-0.191,10365
0.0228,4445
0.0545,3791
-0.134,8207
-0.0186,6112
-0.23,10512
-0.0612,6722
0.168,2497
0.0717,4062
0.169,1367
-0.146,7702
-0.205,9217
-0.0612,6921
0.487,337
-0.151,8644
-0.247,6502
-0.0188,6043
0.0874,1948
0.0302,4438
-0.175,7625
-0.0242,6300
-0.104,7131
-0.0918,9011
-0.0401,6933
0.00375,5380
0.47,129
-0.0867,6027
-0.29,9789
0.0323,4188
0.153,897
-0.173,9516
-0.161,9397
0.102,3944
-0.184,8960
-0.0608,6566
0.121,1534
-0.213,10423
0.0114,4890
0.016,4856
-0.0472,6981
0.61,338
0.107,3443
-0.305,10542
-0.125,7411
1.32,577
1.77,294
0.12,1948
-0.0386,7198
-0.198,8581
-0.356,9137
0.223,608
-0.187,7672
-0.0915,7032
0.0941,2589
-0.409,10592
-0.0385,6390
0.0733,3647
0.433,711
-0.32,9667
-0.115,7413
0.0798,3858
-0.489,10755
0.22,808
-0.0974,7585
0.109,914
0.139,1034
-0.037,6027
0.404,79
0.168,1932
0.0582,3523
0.0748,2058
-0.0121,5889
-0.251,10787
-0.0153,5746
0.091,3689
0.172,1305
0.146,1649
-0.113,8912
0.244,430
-0.085,7607
-0.0092,5640
0.418,2048
0.0354,4266
0.0239,4672
-0.0945,6757
-0.558,10271
0.261,831
-0.252,10172
0.126,1428
0.0203,4595
-0.0227,5692
-0.121,8960
-0.137,8436
0.0673,3433
-0.0783,7111
-0.0123,5704
0.0125,4818
0.0469,4156
0.158,598
0.172,1367
0.0371,4123
0.0993,2407
-0.24,10531
-0.204,9006
-0.223,7828
0.265,2989
-0.105,9235
-0.0249,6391
-0.208,10090
0.131,2219
0.0144,5155
-0.232,9507
0.0234,4666
-0.128,9483
0.274,680
0.0815,3328
-0.0584,6033
0.0117,5156
-0.189,10665
0.0276,4538
-0.163,9475
0.144,2394
0.378,1993
0.294,54
0.0362,4187
-0.178,8643
0.0202,4596
-0.0399,5716
-0.456,11018
-0.223,9444
-0.258,10363
-0.14,9594
-0.234,9886
0.288,1881
-0.0904,7636
-0.144,3909
0.262,261
0.0894,2296
0.311,1306
-0.374,9040
0.297,502
-0.0942,6406
-0.338,10774
-0.16,9670
0.0462,4417
0.031,4824
0.183,2396
-0.0807,6973
-0.0069,5905
-0.0154,5821
0.344,1514
-0.122,6864
-0.0865,6638
0.223,654
-0.179,10656
0.12,676
0.0839,3548
-0.353,9351
-0.134,8226
-0.0902,7241
0.942,737
0.0178,4323
-0.279,9862
0.012,4894
-0.413,10290
0.0322,4342
0.108,3749
0.0261,4541
-0.179,9769
0.0861,3758
0.309,2849
0.175,2286
0.211,745
0.17,1953
-0.334,10179
0.176,2583
1.15,27
-0.659,10596
0.00643,5085
-0.0471,6603
-0.18,8233
0.109,2454
-0.0921,7444
-0.0234,6364
-0.168,10123
0.0753,2832
-0.403,10890
-0.0373,5917
0.42,1209
0.237,1982
0.0821,2791
-0.182,10196
0.529,780
0.0682,3590
0.0271,4686
-0.0663,7099
-0.21,10692
-0.203,8938
-0.0978,8198
-0.322,10315
-0.108,7749
-0.526,10779
0.165,1800
0.0998,3307
0.0625,4093
-0.0782,9214
0.0864,3827
0.0498,3986
-0.176,9528
-0.119,9475
0.513,271
0.0947,2060
0.177,1700
0.0544,3877
0.0181,4515
-0.0844,8676
0.203,2163
-0.15,8413
-0.201,10113
-0.289,10225
0.0202,4859
-0.153,9745
0.53,691
0.105,3945
-0.238,10011
-0.348,10509
0.0148,5142
0.0375,3923
-0.352,10056
0.706,296
0.143,1526
0.61,1250
0.436,187
-0.0314,6776
-0.12,8152
-0.584,9452
0.19,2014
-0.238,8117
0.146,196
-0.0627,7292
-0.0941,7607
-0.0313,6017
-0.0671,6984
-0.0192,5740
-0.0993,8423
-0.205,9551
-0.303,10340
-0.375,10936
-0.181,8664
-0.414,10942
-0.16,9544
-0.293,9883
-0.0932,6937
-0.0614,6655
-0.367,10396
0.0543,4614
0.0849,3118
0.0435,3323
-0.139,8249
0.363,840
0.134,2089
-0.107,7773
0.0634,3868
-0.581,10167
-0.0288,6513
-0.149,8663
-0.0471,7464
0.191,1765
0.0582,3552
0.0342,3880
0.0474,4242
0.00372,5065
0.0312,4496
0.235,2363
-0.00864,5498
-0.213,8819
-0.556,9642
-0.184,8189
0.209,1101
-0.139,6969
-0.201,9940
0.242,2289
-0.093,6632
-0.0809,7111
-0.0282,5799
-0.284,10850
0.0295,3897
-0.00265,5436
-0.0149,5552
0.159,2128
-0.00972,5146
0.211,144
-0.174,9932
0.00698,4902
0.126,3141
0.239,2047
-0.774,9049
-0.275,8256
0.061,3337
-0.0777,7383
0.0756,4027
0.0867,2420
0.115,3823
0.753,161
-0.41,11008
0.0395,4269
-0.111,8140
0.224,1602
0.259,810
-0.0796,6499
-0.0566,7836
-0.0161,6170
-0.0558,6629
0.361,112
-0.171,9006
0.325,626
-0.0747,7666
0.55,321
0.443,106
-0.0357,6382
0.177,2739
-0.542,11024
-0.173,10241
0.145,2651
0.294,991
-0.0499,6358
-0.0961,7154
0.0543,4380
0.269,761
-0.0823,9145
0.0632,3245
0.277,173
-0.165,8988
-0.0105,5460
-0.032,6390
-0.0976,7811
0.119,3616
-0.267,9946
-0.0373,5937
0.869,189
0.121,2354
-0.0621,9680
0.256,693
0.117,2237
0.0227,4917
0.0837,2493
0.011,5278
-0.155,9448
-0.000686,5164
-0.149,9545
0.363,603
0.0912,2546
-0.0545,7048
-0.187,10717
-0.011,5611
-0.212,10018
0.0556,3939
-0.0536,6308
-0.342,10132
0.162,2258
-0.159,8837
0.193,3208
0.059,3990
-0.513,10723
-0.125,9954
0.00246,5164
-0.253,10743
0.502,973
0.11,3268
-0.353,7981
-0.0602,7326
-0.11,7972
-0.3,9970
-0.107,7777
0.0858,3014
-0.373,8547
0.158,1135
0.0778,1849
-0.141,7930
0.226,2109
0.172,2500
-0.485,10167
0.441,64
-0.063,6361
0.067,3700
-0.0506,6652
0.0728,4012
0.356,796
0.0338,4488
0.0989,2369
-0.142,7222
-0.291,10482
-0.172,9633
-0.0337,5529
-0.0264,6352
-0.0272,6685
-0.351,10434
-0.207,9832
-0.101,7685
-0.0669,6662
0.0912,2863
-0.0316,6151
-0.249,10588
-0.227,10342
-0.0528,7160
-0.15,9677
0.127,2593
-0.0397,6546
0.073,3874
-0.113,7806
-0.15,10188
-0.00368,5060
-0.163,10337
0.0323,4457
-0.316,10177
0.0149,4772
-0.0915,5907
-0.115,7690
-0.0407,6861
-0.191,10188
-0.462,9717
0.402,699
0.362,1473
0.0215,4249
0.224,239
-0.34,10735
0.13,2163
0.182,1606
0.218,1859
-0.0541,6630
0.282,1407
-0.0783,7576
0.233,1605
-0.155,7508
-0.334,10686
-0.301,10489
0.0561,4178
-0.275,8733
-0.282,9632
-0.253,9786
-0.333,9990
0.437,494
0.111,3074
-0.0932,6518
0.147,3559
-0.384,8198
0.0591,3900
0.153,489
-0.101,9346
0.118,2895
-0.0877,7519
0.061,3867
-0.0586,6248
0.00273,5388
-0.231,10078
0.0363,4553
-0.124,7562
0.101,2881
-0.102,8294
-0.0685,6407
-0.317,9647
0.0669,4013
0.0681,3246
0.315,1782
0.2,739
-0.0808,7639
0.0582,1349
0.000207,5004
-0.332,10300
-0.033,5859
0.0936,3182
0.161,1276
-0.139,8873
0.0204,4771
0.0668,2910
0.213,1582
0.146,2390
-0.0541,7548
0.301,448
-1.32,10897
-0.0618,6587
-0.00211,5210
0.00135,5537
-0.2,9824
-0.173,9868
-0.211,9447
0.286,1291
0.405,1693
-0.695,10799
-0.0895,9545
0.144,2005
0.462,104
0.0134,5028
0.11,3643
-0.818,10859
0.0827,3632
0.0269,4737
-0.0308,6253
0.723,167
0.0939,2193
-0.0264,5485
-0.109,8087
-0.0607,6182
-0.0205,5918
-0.265,9722
-0.176,8198
0.29,835
-0.0755,7375
0.0221,4430
0.0624,4056
0.0571,4205
-0.217,10047
0.323,571
0.0075,5348
0.0108,5100
-0.0402,6603
0.171,2345
0.0603,4296
-0.0295,5518
0.156,1713
-0.129,10109
0.0455,4387
-0.0551,6431
-0.352,10903
-0.368,9289
-0.0584,6869
-0.297,10683
0.103,2652
-0.081,7402
-0.00845,5881
-0.0959,8809
-0.11,8251
0.298,809
-0.285,9108
0.144,2485
0.00546,5336
0.0257,4849
0.0987,2872
0.304,796
-0.671,10948
0.149,1780
-0.0213,5606
0.261,2397
-0.11,8592
-0.128,8282
0.119,3200
0.0262,4707
-0.102,8435
0.143,3415
-0.0367,6331
-0.0891,8905
-0.389,7988
0.518,52
-0.0851,7085
-0.179,9320
0.152,1556
-0.321,10474
0.313,689
-0.0856,5941
0.0972,2991
0.00832,4933
-0.0841,8337
-0.082,8759
0.114,2066
0.0186,4491
-0.0784,6204
0.312,3139
-0.213,10482
-0.0668,7277
-0.224,10303
-0.00442,5179
0.128,3567
-0.00487,5580
0.0777,3113
-0.0239,6086
-0.502,9992
-0.022,7437
0.0407,2797
-0.108,8388
-0.117,8108
-0.435,7109
-0.157,8456
-0.0819,9776
-0.0548,8777
-0.625,8182
-1.03,9907
-0.00481,5500
-0.3,10997
0.255,949
0.466,162
-0.306,9799
0.121,3144
-0.0274,5837
0.016,4860
-0.281,10602
-0.0434,5467
-0.435,11014
-0.367,10752
-0.0214,5603
0.00288,5327
0.335,65
-0.252,10059
0.0912,3806
-0.0785,6657
-0.286,10169
-0.0289,6071
0.0556,3019
0.113,2002
-0.256,9638
-0.36,8974
0.287,1738
-0.126,8844
0.356,325
0.0418,3988
-0.0721,7699
-0.26,10253
-0.399,8550
0.0013,5137
-0.0374,6857
-0.16,9246
0.279,591
0.0578,3416
0.412,2156
-0.0962,8680
0.0233,4705
0.276,833
0.206,1113
-0.364,9876
0.0734,3215
-0.151,10212
-0.0993,7961
0.0282,4483
0.103,3329
0.223,880
0.111,2684
-0.103,8129
0.173,142
-0.323,10647
-0.124,8928
0.659,418
0.0452,3902
-0.0711,8605
-0.141,9612
0.19,1425
-0.627,9819
-0.0184,5921
0.233,1705
0.103,1762
-0.0325,6602
-0.16,9133
0.193,1934
0.367,267
0.0393,4517
0.0459,4616
0.0896,2348
-0.0832,6644
-0.191,10156
-0.517,10827
0.566,460
-0.141,9318
-0.251,9033
0.0462,3746
-0.0751,7018
0.048,4159
0.0486,4461
0.112,2814
-0.0562,7827
-0.148,9120
0.327,454
0.0542,3848
-0.00714,5356
0.0177,4613
0.0327,4263
0.147,1859
0.118,3453
-0.491,7048
0.197,1857
0.139,1267
0.231,1042
-0.135,9111
-0.273,10374
0.347,789
0.286,1180
-0.0187,5792
-0.115,8222
-0.102,5813
0.301,3165
0.15,3247
0.198,3457
0.325,1090
0.683,584
-0.0389,6740
0.0227,4817
-0.54,10768
0.118,2779
0.132,1156
-0.135,8530
0.0342,4286
-0.164,7438
-0.103,8545
0.493,882
-0.143,9094
-0.184,10399
0.164,879
-0.136,6543
0.0113,4556
-0.157,10242
-0.172,9657
-0.0597,7358
-0.00399,5396
0.159,3170
0.117,3273
0.299,811
0.11,2730
-0.189,9806
-0.0789,7844
0.0855,3504
-0.229,8869
-0.523,10906
-0.0899,8132
0.326,648
-0.377,10915
-0.198,9385
0.12,3669
0.00515,5049
0.0965,2830
0.0112,4831
-0.509,10880
-0.0894,8534
0.126,2679
0.118,2962
0.114,3136
-0.115,9312
-0.09,7769
-0.388,9685
0.443,28
0.0873,2351
-0.442,11027
0.226,1130
0.154,2094
-0.074,4086
0.192,2489
-0.126,9276
0.0454,3538
-0.151,8975
0.663,1534
0.15,2004
-0.105,8941
-0.0604,7424
0.0447,4202
0.0768,2869
-0.62,10760
0.331,1745
-0.0316,6267
0.128,2412
0.0221,4565
-0.0537,6611
0.262,1378
0.105,3488
0.111,1222
0.226,2191
-0.313,10679
-0.219,10260
-0.113,6263
0.196,1915
0.0318,3750
-0.0712,7898
0.189,1115
0.0628,3703
0.225,1925
-0.14,8235
0.262,1045
0.0749,3205
-0.311,10488
-0.0182,5752
-0.105,7016
0.792,96
-0.184,10044
0.111,2501
0.0178,5124
-0.207,9650
-0.00106,5213
-0.0876,7488
-0.102,8169
0.0885,2268
0.164,2441
-0.49,10369
-0.319,9551
0.23,2300
0.111,1666
-0.0508,7152
-0.163,8997
-0.27,9800
0.0671,3726
0.14,3249
-0.0609,7765
-0.125,7915
-0.201,9617
-0.0965,7870
0.0441,4125
-0.0981,7904
0.074,3446
-0.0868,7182
-0.0909,7840
0.0534,4154
-0.0502,6513
0.203,1639
0.157,990
-0.0524,8408
-0.147,8084
-0.108,8024
-0.216,9344
0.0349,4293
-0.0443,6527
0.112,2941
0.232,572
0.176,1385
-0.0557,6570
0.121,1682
0.0135,4678
0.181,2569
0.177,911
-0.255,8377
0.221,1386
-0.0773,8425
-0.0196,6615
-0.159,9018
0.386,349
-0.0997,7941
-0.527,10680
-0.165,10177
0.0844,2619
-0.202,10570
-0.0335,5743
1.34,335
-0.289,9158
0.232,1315
-0.133,9366
0.109,3032
-0.235,10884
-0.115,7054
-0.186,8575
-0.0582,7115
0.0435,3464
0.104,2604
-0.145,8841
0.276,257
-0.0301,6300
0.0231,4462
0.18,1134
0.157,2696
0.0067,5243
0.114,3124
-0.185,7790
-0.0969,7591
-0.192,9029
0.0578,4234
-0.179,7798
0.0971,4027
0.0948,3816
-0.0818,7282
0.0662,3301
0.351,173
0.0958,2917
0.146,3055
-0.0112,4042
-0.193,10190
-0.0819,6121
-0.299,10102
-0.359,10413
0.168,2423
-0.0983,7506
0.193,784
0.248,747
-0.2,10399
0.167,3441
0.245,1395
-0.178,9669
0.0405,4100
0.178,1431
-0.0314,5798
-0.239,9951
0.339,2139
0.404,1831
0.0433,3669
-0.111,10226
-0.353,10930
-0.00944,5390
-0.0534,5242
-0.17,9430
0.0543,3739
0.0266,4557
0.218,1099
0.41,517
-0.05,5930
-0.0276,6110
-0.0334,6397
-0.106,9019
0.0849,3195
-0.303,10347
-0.0671,8451
0.13,2202
-0.00152,5587
-0.0329,5845
0.114,3081
0.0393,4341
-0.157,8748
-0.00617,5623
-0.0383,7236
0.017,4619
0.118,2660
0.219,621
-0.203,6433
-0.0998,6624
0.0179,4884
0.0346,4459
0.00559,5145
-0.486,10643
-0.238,10808
-0.42,8634
0.112,1142
0.0154,4488
-0.0513,6060
-0.151,7491
0.083,3536
-0.193,9036
0.0121,4839
-0.0911,8729
0.274,492
-0.104,7468
0.402,898
0.0176,4938
-0.0388,7337
0.0377,4589
0.226,1673
-0.0449,7273
-0.0531,6906
0.163,2713
0.188,768
-0.101,8723
0.0312,4533
-0.106,6450
0.884,108
-0.29,7252
-0.0378,6977
-0.0801,9224
-0.102,7873
0.176,1827
-0.118,6316
0.00226,5358
-0.00762,5696
0.173,704
0.061,4184
-0.185,9027
0.114,2062
-0.037,6424
-0.0445,7682
0.112,1742
0.199,2172
-0.0132,5985
-0.14,7662
0.521,122
-0.0374,6695
-0.32,10172
-0.189,8302
-0.337,9675
0.239,788
0.6,288
-0.0818,6736
-0.0107,5355
-0.228,10514
-0.152,10372
-0.042,7018
-0.147,9676
0.143,2692
0.064,3313
0.106,3531
-0.163,9460
0.165,967
-0.204,9625
0.107,2911
-0.161,8875
0.156,2895
0.118,1157
-0.23,10915
-0.18,10215
0.349,572
-0.151,8515
-0.187,10029
-0.119,8691
-0.0622,6858
0.262,723
-0.211,8588
-0.05,6363
0.339,1000
0.0371,4042
-0.137,8454
-0.382,10975
-0.00919,5845
-0.392,10238
0.0778,2825
0.145,2167
0.279,1834
0.0417,4093
-0.128,8526
0.44,430
-0.292,9152
-0.144,8078
-0.0669,8470
-0.137,8656
0.16,1387
-0.267,9764
-0.279,9541
0.0768,2939
0.0139,5080
-0.0378,5921
-0.057,6311
-0.618,10919
-0.264,9000
-0.0202,6013
-0.00391,5278
-0.148,10753
-0.223,8573
0.177,2392
-0.487,10418
-0.221,9932
-0.0328,6885
0.0668,3263
-0.0925,8930
0.159,1951
-0.0248,6330
-0.095,8267
-0.0373,6065
0.131,2628
-0.156,9109
0.208,946
-0.0438,6739
-0.11,9679
-0.0616,6987
0.0594,4055
0.0629,3769
0.0668,3954
0.0647,3611
0.199,2157
-0.123,8959
-0.0964,7565
0.103,2800
0.345,1202
-0.303,10281
-0.0179,5708
0.0658,3795
0.0516,3886
-0.472,10584
0.732,369
-0.00591,5582
0.162,2149
0.0871,3883
0.126,2873
-0.0628,6380
-0.0816,8252
0.449,298
-0.282,9333
-0.0418,5927
-0.223,9113
0.703,96
0.000818,5360
-0.0867,7683
-0.0259,6461
-0.00138,5552
0.0939,3389
0.0212,4793
-0.00597,5232
0.013,5001
0.0294,4768
0.0404,4134
-0.195,9703
-0.352,10928
-0.32,10791
-0.191,10515
-0.128,9693
-0.462,9959
0.23,1924
-0.194,9524
0.143,2330
-0.058,8456
0.13,2364
0.0241,4738
-0.0329,6445
0.231,1111
-0.07,7043
0.461,364
0.126,1901
-0.374,11008
-0.00779,5437
-0.246,10027
-0.0759,6788
0.0143,5137
-0.121,8497
-0.261,9189
0.0509,3895
0.32,977
0.968,764
-0.119,9334
0.0388,3478
-0.0529,6803
0.0656,3808
-0.025,6148
-0.987,10110
0.279,48
0.069,2850
0.0245,4664
-0.0611,6248
-0.33,9099
0.276,1131
-0.0331,6255
-0.0121,5686
-0.099,7307
0.361,487
-0.0887,8054
-0.62,9372
-0.0287,5928
0.0884,2796
0.00375,5087
-0.0768,6894
0.0768,3950
-0.187,7601
-0.138,10556
0.0328,4456
0.23,713
-0.302,10876
-0.0878,7665
-0.107,6107
0.243,374
-0.225,9105
-0.0294,4881
0.0055,5154
0.0187,4876
0.00803,4936
0.111,1533
-0.231,10979
0.15,2724
-0.0266,6156
0.243,1237
-0.0524,6636
0.12,1611
-0.0899,9279
-0.0144,5855
-0.00232,5414
0.0253,4833
0.0882,4060
0.0638,3789
-0.0132,5756
0.217,1729
-0.266,8666
0.0548,3895
-0.011,5599
0.00575,5076
-0.0755,7442
0.287,1306
-0.203,9940
-0.346,9284
-0.0226,5844
0.131,433
0.0152,4777
-0.169,8436
-0.101,7386
0.209,2577
-0.135,7608
0.136,1499
0.0324,3877
-0.0404,6757
-0.0422,6380
-0.141,8179
0.0372,4669
0.139,823
0.111,1444
-0.33,9194
0.118,1903
-0.117,8017
0.287,2545
0.0404,4196
-0.11,8324
0.0374,4308
-0.0599,5970
-0.238,9252
-0.56,10620
-0.0587,6836
-0.0454,6597
0.226,1694
0.22,2127
-0.0657,7084
-0.507,10652
0.00542,5462
0.0721,1420
-0.327,10277
-0.0652,6951
0.369,2135
0.312,1109
0.115,1158
0.115,2079
-0.404,10488
0.273,1572
0.357,2194
-0.0442,5729
0.0401,4117
-0.124,7034
0.00953,4908
0.0711,3148
-0.0415,6795
-0.243,9071
0.153,532
0.0976,2870
0.432,269
0.061,3555
-0.637,8663
0.425,2200
-0.16,9519
-0.123,8709
0.0511,3311
0.475,666
0.0382,4530
0.386,1962
0.0431,4434
0.0827,2942
-0.0646,6776
1.08,986
-0.22,10050
-0.229,8026
0.157,403
0.389,476
-0.0496,6513
-0.169,8398
0.23,866
0.104,3493
0.293,254
0.387,602
0.0882,3435
-0.13,8166
-0.0604,6759
-0.355,9878
-0.106,9216
0.228,1054
0.236,960
0.221,1345
-0.184,8330
0.192,2238
0.00958,5202
-0.0872,8483
0.107,2781
0.145,1628
-0.266,9108
-0.148,8292
0.0602,3375
0.198,1151
-0.066,6516
-0.0953,7592
0.267,26
-0.111,6443
-0.0876,8626
-0.000749,5453
-0.0114,5754
-0.325,11023
-0.023,5936
0.0891,3008
0.137,2949
0.266,138
-0.112,9090
-0.539,10828
-0.342,10299
1.64,26
0.219,3223
0.0598,2384
-0.119,10083
-0.269,9628
-0.068,7548
-0.175,8954
0.525,1085
-0.108,9106
0.0856,1132
-0.0557,5168
-0.555,9434
-0.431,8724
-0.197,7878
-0.297,9242
-0.0737,8478
0.199,2336
-0.128,7784
0.141,1888
-0.0882,9530
-0.0522,7344
-0.0902,7399
0.251,1468
-0.354,10559
-0.0374,6042
-0.237,9533
0.24,142
-0.44,11031
0.467,607
-0.588,10496
-0.323,10106
0.0797,3172
0.119,2938
-0.138,7895
-0.206,9367
-0.333,10481
-0.118,6512
0.0516,4132
-0.0926,8362
-0.0394,6533
-0.217,6337
0.295,1871
-0.256,8544
0.0831,3909
0.0675,2890
0.0448,3780
-0.009,5020
-0.331,8567
-0.681,9226
0.511,1411
0.119,2324
-0.667,9149
-0.17,7206
0.0427,4678
-0.322,10847
-0.00194,5292
0.267,985
0.323,675
0.388,285
-0.211,9571
0.154,1222
0.258,465
-0.0508,6442
-0.0784,7134
0.073,2198
0.145,3451
-0.0064,5703
-0.193,9448
0.0898,2092
-0.0321,5409
0.121,1364
0.0292,4401
0.443,997
0.00109,5357
0.16,953
-0.00257,5273
0.0618,3623
-0.0832,7578
-0.156,10656
-0.145,10192
-0.0706,6401
0.391,899
-0.166,7026
-0.113,7874
-0.000223,5080
-0.0175,5881
-0.00924,4756
0.251,2680
0.355,1339
0.0178,4731
0.115,2521
0.279,314
0.0193,4855
-0.0951,7809
0.0796,3203
-0.0976,7652
-0.0692,8235
0.148,1863
0.242,951
0.187,1558
-0.226,9288
-0.207,8499
-0.109,9529
0.0374,3480
0.219,2465
-0.693,10424
-1.19,11002
0.118,2177
0.326,353
0.246,836
0.357,905
-0.0818,7454
0.229,912
-0.049,6683
-0.0609,7527
-0.069,5968
-0.0373,6027
0.691,316
-0.0147,5416
-0.171,10297
-0.11,8539
-0.163,8275
-0.00801,5468
0.851,259
0.269,1910
-0.042,7049
-0.0587,6330
-0.0825,7404
-0.0529,6540
0.556,26
0.198,862
0.0106,5119
-0.0114,5736
-0.45,10673
0.281,1445
-0.0109,5424
0.404,2133
0.0453,3560
-0.409,10744
-0.311,9782
0.135,1984
-0.0139,5366
-0.0165,6160
-0.0511,6077
-0.122,7688
0.342,506
-0.0804,8137
-0.215,9642
-0.0838,8575
-0.306,10987
0.0511,2839
-0.252,10419
-0.0688,6702
-0.295,10224
-0.176,5873
-0.272,10849
-0.173,10073
-0.0234,5373
0.242,330
0.179,2929
-0.385,9116
-0.0662,7587
0.00666,5000
0.141,3247
0.252,710
0.162,2302
-0.0787,7520
0.0141,4543
-0.136,8708
0.0378,4670
0.0329,4511
0.107,2309
-0.258,10118
-0.083,9569
-0.0449,7443
-0.0501,6558
-0.0608,7023
-0.11,7151
0.0593,3633
-0.0782,5862
-0.114,8557
-0.138,7881
0.146,3004
0.208,847
-0.21,8480
0.142,1260
-0.199,10253
0.205,1173
-0.334,10235
0.0678,4379
-0.493,10922
-0.127,9528
-0.178,9563
0.136,2608
0.156,1649
-0.462,8468
-0.0372,6668
-0.162,8693
-0.0398,6882
-0.117,8831
-0.156,9149
0.0571,4094
-0.529,9810
0.0486,4193
0.0549,3677
-0.0118,5894
-0.216,9840
-0.363,10751
-0.281,10882
-0.223,10922
0.159,670
-0.302,9447
0.591,208
-0.0581,6005
0.0739,4053
0.277,338
0.254,913
-0.106,6579
0.0126,4897
-0.599,10916
0.45,117
-0.0192,5787
0.0098,5093
-0.0906,6875
0.169,2698
-0.0758,5276
-0.274,9963
-0.162,8338
0.0338,4124
-0.209,9549
0.331,1156
0.386,2859
-0.157,9580
-0.148,7888
0.12,2872
-0.126,9646
0.257,1843
0.145,896
0.18,1992
-0.0154,5959
-0.0339,6151
-0.0135,5374
-0.266,8543
-0.00921,5155
0.0852,2064
-0.0186,5970
-0.988,10729
-0.188,8077
0.278,1192
0.112,1910
-0.12,8819
0.0375,3515
-0.0884,9143
-0.173,10057
-0.0867,7330
0.0708,2931
0.0714,2720
0.213,733
-0.185,9741
-0.114,8876
0.226,1741
0.113,1571
-0.161,10003
0.0545,3145
-0.0138,5513
-0.156,9942
0.527,626
0.146,2987
-0.0586,6311
0.0568,3724
-0.00261,5539
0.318,394
-0.0841,7471
0.11,3204
0.163,2002
0.0676,2214
-0.12,8325
-0.233,9386
-0.153,10229
-0.11,8336
-0.138,9503
-0.0508,7761
0.0641,3581
0.0419,4405
-0.163,7914
0.075,4285
0.0485,3695
-0.00484,5501
0.345,993
0.25,804
0.235,1411
0.685,1370
-0.123,8964
0.0046,5038
-0.215,7192
0.218,1266
-0.0931,7221
-0.0899,8249
0.275,942
0.137,2339
-0.0937,6846
0.208,1364
-0.244,7573
-0.311,9243
-0.0117,5747
0.00959,4751
-0.0895,8142
-0.0147,5775
-0.0732,8404
-0.35,10564
-0.105,8968
0.0667,3252
-0.193,8773
0.0531,3616
1.02,193
-0.19,9181
-0.135,9635
0.0688,2132
-0.122,8151
0.0775,3028
0.108,3400
-0.182,10364
0.0872,2442
-0.0933,8308
-0.181,8416
-0.0156,5677
0.0182,4967
0.0382,4220
-0.155,5939
-0.0077,5553
0.00996,5093
0.189,1638
-0.0545,6161
-0.097,8375
-0.0299,6413
0.328,751
1.11,455
0.0564,4200
-0.128,8969
0.386,584
-0.241,10371
0.166,2322
0.143,1111
-0.147,8739
0.163,1040
-0.745,10751
-0.0138,6559
0.0676,2947
-0.152,9650
0.236,1097
0.0099,5106
-0.311,10828
-0.033,6133
-0.0122,5969
0.0389,4063
-0.0483,6443
0.109,2459
0.493,975
-0.12,7677
-0.0182,5955
-0.0768,6657
0.218,1183
-0.431,10453
-0.165,9158
-0.0574,7303
-0.0673,7251
0.0371,4097
-0.0528,6573
0.141,2797
0.0268,4514
-0.321,9986
0.266,768
0.023,4847
0.206,2015
0.175,1114
-0.164,10276
0.0305,4190
-0.312,10512
-0.0183,5575
-0.0735,6128
-0.0649,6222
0.227,1834
-0.181,10721
-0.171,10194
-0.0918,7981
0.132,2864
0.168,3227
-0.21,7595
0.109,1191
-0.0753,6847
-0.117,7083
-0.254,10090
0.0675,4327
-0.0116,5701
-0.129,9131
0.113,1545
-0.456,10126
-0.21,9272
-0.273,8994
0.0555,4099
0.157,1863
-0.212,8591
0.0383,4336
0.0553,4270
0.0329,4492
-0.383,9732
0.136,532
0.269,31
-0.00447,5656
0.00172,5202
-0.0335,5943
-0.232,8848
0.133,2052
-0.0707,8306
-0.184,10038
-0.179,10340
-0.0563,6228
-0.137,8456
-0.0509,8593
-0.308,10428
-0.0134,5368
0.127,2014
0.227,1230
-0.16,8021
0.411,212
0.0163,3960
-0.00231,5411
-0.0756,6815
-0.129,7555
0.035,4313
0.0323,4021
0.0585,3796
-0.0556,5110
0.0738,3610
0.0307,4556
-0.0164,5878
0.0368,3902
0.176,1519
-0.0865,7288
0.242,1262
0.0461,4230
-0.258,10599
0.0331,3999
0.198,63
-0.128,7281
-0.177,9727
0.175,2853
0.143,1844
-0.00798,5348
0.00267,5243
-0.0563,7153
0.26,1467
0.0962,2494
0.314,2152
-0.0507,8681
0.00525,4877
0.333,943
0.00271,5210
0.461,198
-0.09,7697
-0.0859,8481
0.16,1131
0.178,2355
-0.113,7276
-0.115,9165
-0.0651,6815
-0.0323,7013
0.0302,4407
0.103,3532
0.0662,3267
-0.0629,5145
0.12,2971
0.222,1387
-0.0558,8404
-0.217,9146
0.333,485
-0.0632,6868
-0.111,8000
-0.0126,5744
-0.0194,5666
0.453,314
-0.308,8317
0.417,430
-0.0475,6389
-0.144,9648
-0.118,7727
-0.0708,5118
0.225,1455
-0.151,7771
0.587,115
-0.0987,10435
0.108,2227
0.0929,3320
-0.161,9764
-0.124,8549
0.196,1670
-0.11,9834
-0.19,10543
-0.0325,5702
0.206,1973
0.121,3105
-0.116,7868
0.206,233
0.0188,4865
-0.102,7400
-0.0587,6301
-0.26,10639
-0.334,10418
0.0411,4145
0.0285,4214
-0.216,7746
-0.0133,5319
0.724,2045
-0.0807,6320
-0.0867,8037
-0.106,8411
0.125,3215
-0.0478,6201
0.0634,3033
0.0144,5254
0.141,1573
-0.0729,7546
-0.467,7456
-0.219,9261
-0.11,9340
0.104,3540
-0.305,10065
-0.241,10439
3.13,296
-0.421,10632
0.35,355
0.756,489
-0.248,9480
-0.09,8953
-0.459,9034
0.145,1424
-0.23,8304
0.0216,4723
0.0085,5111
-0.0188,6103
0.179,2497
-0.432,10681
0.734,712
0.113,3620
0.372,1064
-0.0784,6835
-0.142,7796
0.366,966
0.0317,4289
-0.0538,6678
-0.012,5782
-0.0624,6212
0.801,174
-0.425,9911
-0.401,10385
0.132,1809
0.159,2101
-0.0618,7426
-0.321,9668
-0.308,10601
-0.499,8987
0.0989,3800
0.00491,5158
-0.0822,7403
0.14,2839
0.0886,2274
-0.41,9234
0.00552,5152
-0.0417,6991
0.256,449
0.0421,4758
-0.276,9772
-1.24,10947
-0.0532,6116
-0.118,8673
-0.15,10620
-0.351,10677
0.094,2597
-0.456,10707
-0.0402,6628
0.0294,4700
0.0856,2106
0.195,2273
-0.177,9081
0.0157,4931
-0.00964,5225
-0.0114,5664
-0.204,10794
-0.223,9201
-0.366,10428
0.0922,3804
-0.121,6989
0.0379,4176
-0.0254,6393
0.12,2769
0.211,3533
0.0932,3715
-0.0332,5942
-0.0436,6379
-0.0938,9776
-0.295,10497
-0.2,9118
0.0647,3323
-0.242,9783
-0.127,8699
-0.165,10598
0.305,2124
0.0862,3297
0.737,28
0.0588,4384
0.0211,4618
0.323,255
0.0225,4769
-0.0584,8322
0.537,98
-0.0523,6211
0.0482,3437
0.277,1144
-0.229,10323
0.25,1586
-0.115,6970
-0.00707,5371
-0.0686,7918
0.277,807
-0.0997,7874
-0.26,8985
0.126,2945
0.0122,4423
-0.0111,5589
0.518,287
-0.00188,4998
-0.623,10627
0.0946,3484
-0.0285,5930
0.225,906
-0.0179,6070
0.0373,4161
-0.0155,5707
-0.106,6838
-0.0172,5434
-0.297,10973
0.143,2055
0.126,2551
0.0403,3708
-0.0335,5386
0.231,1345
-0.0224,6544
-0.0441,6872
-0.0378,6189
-0.229,9521
-0.246,9689
0.0473,4085
0.15,1427
0.0928,2817
0.194,843
-0.183,9268
0.111,3284
-0.117,7323
-0.074,7536
0.0744,3051
-0.183,8344
-0.663,9782
-0.0875,8241
-0.275,10597
0.028,4405
-0.127,7751
-0.0602,6844
0.0524,3092
0.0831,3553
-0.0154,5946
-0.0499,7210
0.0505,2624
-0.0382,7636
-0.149,10164
-0.00212,5310
0.0705,3203
-0.303,10745
-0.122,7216
-0.0117,5661
-0.291,10610
0.000405,5382
-0.0165,5886
0.0692,3290
-0.0723,8472
0.391,1533
0.0805,3364
0.0508,3124
-0.159,8866
-0.128,6161
0.114,3249
0.18,1455
-0.049,6842
-0.109,8527
-0.51,8258
0.105,2634
0.0651,4112
0.0632,3509
-0.0345,6732
-0.00984,5212
0.303,521
0.24,1517
0.372,701
-0.207,9288
0.0671,3342
0.169,2282
-0.091,7416
0.162,2490
0.133,777
0.0437,4542
0.346,1021
-0.294,6187
0.278,2472
0.271,643
0.193,977
0.22,1113
-0.00256,5339
0.316,1337
-0.277,7889
-0.0589,6601
0.166,1583
-0.135,10053
0.321,1137
0.123,2541
0.314,1432
-0.101,9008
-0.000941,5536
-0.0793,7240
0.0682,3727
-0.0833,7633
-0.0387,6301
-0.00792,5640
-0.116,7013
-0.0376,5599
-0.206,10639
0.352,579
-0.203,10010
-0.0674,7666
0.108,3282
-0.153,7897
-0.0849,6658
-0.142,6938
0.109,3903
0.000273,4976
0.0673,2907
0.186,1346
0.1,3932
0.187,2064
-0.182,7779
0.218,586
0.34,779
-0.282,10753
0.0685,3644
-0.125,9363
-0.0578,6829
-0.201,10054
-0.104,7751
-0.0423,6193
-0.321,10825
-0.151,7037
0.151,3200
0.0887,2610
0.0219,4156
0.125,2423
0.259,1611
0.291,1055
-0.421,8945
-0.0284,6221
0.157,1832
0.0596,3862
-0.29,9149
0.0183,4866
0.449,428
-0.0736,9780
-0.0947,7972
0.122,2670
-0.0927,7132
0.0988,2918
-0.162,10435
0.00491,5485
-0.144,9308
-0.223,8619
0.0523,4428
-0.237,7824
0.398,638
-0.0293,6467
0.179,966
-0.14,7830
-0.254,10554
-0.268,9357
-0.0224,5272
-0.156,9303
0.0173,4697
-0.11,7737
0.376,707
-0.507,7227
0.0454,4443
0.153,1376
-0.0605,6647
-0.121,8138
0.201,2480
-0.974,9644
-0.0813,6558
-0.14,10313
0.0548,4026
-0.236,9776
-0.131,8213
0.163,3131
-0.145,9389
0.101,2564
0.223,1668
-0.148,7455
0.095,3495
-0.234,9406
0.00111,5254
-0.086,8613
0.239,527
-0.322,9415
-0.0504,6703
-0.0556,6706
0.463,1859
-0.0695,7834
0.36,272
-0.0278,6230
-0.0746,7495
-0.152,8766
0.332,2116
0.39,1550
0.0254,4662
-0.431,10093
0.0259,4641
-0.504,9827
0.281,1137
0.0731,2806
0.721,18
0.0172,4956
0.282,1070
0.363,1523
-0.503,9314
0.152,618
0.0455,3665
0.159,2734
-0.409,9896
0.0185,4940
0.218,1048
0.0876,2083
-0.00838,5795
0.134,2128
-0.198,9492
-0.0633,5879
-0.128,9347
0.102,3041
-0.203,9563
-0.0592,7268
0.655,97
0.0213,4769
0.146,2199
0.0675,3466
-0.133,8884
-0.306,8918
0.00742,5000
0.117,2686
0.00211,5193
-0.0708,6712
-0.165,8456
-0.048,6185
-0.0938,7814
0.131,2599
0.544,365
-0.126,9075
-0.416,10463
0.242,1122
0.0733,2909
-0.0307,6056
-0.0292,6176
0.0324,3465
-0.00141,5693
0.184,2619
0.000485,5253
-0.0181,5475
-0.0768,8507
0.296,745
-0.129,8288
0.5,2624
0.253,1421
0.657,612
0.111,3447
0.142,3027
0.0144,4949
0.549,164
0.155,2853
-0.12,8798
-0.108,6870
-0.269,10815
-0.0248,7021
0.257,2345
0.171,1709
0.856,1365
0.0562,3852
0.218,1245
0.114,1814
0.236,1914
-0.418,10769
-0.258,9900
-0.146,8894
-0.113,9629
-0.101,8694
-0.275,8109
-0.179,8692
0.0365,4373
-0.429,6720
0.353,1395
0.0609,3561
0.124,3251
-0.254,9727
-0.376,6973
0.273,1548
-0.189,10529
-0.0677,8102
-0.023,6146
0.107,2391
-0.174,9953
-0.155,9502
0.0445,3867
0.115,2678
0.121,3014
-0.327,8974
0.804,171
-0.357,10903
-0.213,10202
-0.0751,7518
0.222,1643
-0.0752,6839
-0.00777,5747
0.0708,3890
0.177,1065
-0.125,8960
-0.1,7531
0.0893,2154
-0.323,9910
0.0295,4580
0.119,1120
0.177,380
0.198,1723
0.292,618
0.166,1981
-0.0331,5885
-0.0818,9076
-0.125,9684
-0.0626,7073
-0.117,6890
-0.326,8760
0.113,2573
-0.0155,6149
-0.218,10759
-0.0814,6304
0.232,1996
0.174,2673
0.628,1721
0.0399,3015
0.044,3591
0.0948,3841
0.241,589
-0.321,8039
-0.00728,5752
-0.0698,8330
-0.0851,9164
0.628,192
-0.0958,9155
0.0468,4262
-0.0355,6356
0.623,72
-0.0859,8735
-0.0274,5967
-0.339,8779
-0.28,10748
0.138,3621
0.497,46
-0.0249,6270
-0.0461,6258
0.134,3186
0.124,2752
-0.19,7214
0.0107,5036
-0.0477,6611
2.57,55
-0.266,5312
0.172,1256
0.0229,5244
-0.394,10253
0.387,1635
0.0996,3421
-0.27,10836
0.0505,3895
-0.00582,5307
0.675,353
-0.308,8733
0.281,1675
0.0794,1831
-0.101,9019
0.115,2749
-0.113,8850
0.151,1475
0.089,3087
0.235,99
0.0357,4215
0.196,2368
-0.0555,6559
0.285,1625
0.222,1262
0.226,869
0.148,899
-0.134,8070
-0.0471,6362
-0.0629,6543
-0.381,10467
-0.113,7811
0.0197,4873
0.102,4156
-0.0734,5987
-0.121,8930
0.244,1560
0.0582,3399
0.0233,4531
2.46,16
-0.102,7765
-0.462,10611
0.108,1095
-0.0515,7974
0.0531,2911
-0.623,8189
-0.993,10351
-0.34,7547
-0.254,8251
-0.189,9989
-0.118,8826
0.676,1721
-0.335,8269
-0.17,5456
-0.287,8586
-0.338,8007
-0.146,5918
-0.089,7360
-0.0728,6506
0.109,1957
0.174,466
0.503,472
-0.0431,5334
-0.374,9040
-0.249,7106
-0.38,10699
0.385,452
0.178,1186
0.262,1129
0.00523,5209
-0.0519,6562
-0.0443,6213
0.0252,4730
-0.432,10787
-0.122,8080
-0.501,10848
-0.0142,6145
-0.0154,6329
0.384,464
-0.123,8551
0.149,1484
-0.182,9952
0.109,3151
-0.0399,6362
-0.0517,8039
-0.416,6632
0.284,1923
0.0052,5314
-0.0502,6053
-0.269,10254
-0.0346,5930
-0.278,6760
-0.385,10531
0.128,2855
0.17,2574
0.13,835
0.0598,4597
-0.591,10721
-0.625,7867
0.339,1419
0.0378,3719
0.0901,190
0.0875,3623
0.0382,4565
0.905,27
-0.287,10626
0.0911,2528
0.44,300
0.172,1622
-0.192,9143
-0.111,8018
0.0647,4021
-0.123,8153
0.0599,2706
0.109,3848
-0.0335,5728
0.0742,4228
0.193,521
-0.144,9591
0.0713,3740
0.063,3638
0.0994,2731
-0.0266,5546
0.176,2674
0.321,1571
0.0188,4711
0.0596,4347
0.0222,4713
0.479,87
-0.0406,6878
0.0497,3535
-0.146,9774
-0.0902,6772
-0.0753,6628
0.00677,5011
-0.21,6696
-0.0166,6105
-0.192,10136
-0.0836,6433
0.192,2258
0.481,198
0.0948,3293
0.0757,3267
-0.0592,6231
-0.0996,7225
0.0606,3842
-0.0461,6134
0.0182,4503
0.277,87
0.0773,3083
-0.129,6459
0.131,2350
-0.49,10992
0.0598,2924
-0.108,8670
-0.0887,8604
0.0537,3474
0.439,611
-0.258,10267
0.313,521
0.529,54
0.0494,3304
-0.000364,5171
0.284,331
-0.57,10940
0.205,2116
-0.0462,6739
-0.101,8233
-0.213,9958
0.0875,3623
0.164,2315
0.103,2871
0.113,1958
0.289,369
0.135,2891
-0.236,9961
0.142,2703
0.025,4649
0.00496,5073
0.116,1069
0.0847,2949
0.00843,5009
-0.053,7480
-0.00186,5382
-0.0283,6321
-0.184,8157
0.397,231
0.24,108
-1.16,10158
0.0825,2567
0.184,1693
0.0779,3329
-1.17,10902
-0.409,10314
-0.179,8405
0.12,1982
0.0668,2994
-0.276,10466
-0.281,10616
-0.0873,7181
0.31,410
-0.158,9468
0.00511,5273
0.585,568
0.205,789
0.0619,4210
0.15,2285
0.0511,4278
-0.0343,6828
-0.0747,7412
-0.281,10380
-0.00244,5346
0.0377,4486
-0.13,8881
0.219,527
0.315,1740
-0.188,7399
-0.249,7982
-0.0255,6024
0.181,2571
-0.294,10478
0.78,76
0.00601,5108
0.0767,4119
-0.0182,5797
-0.0705,7494
-0.107,8666
-0.225,9974
0.306,238
0.19,1040
-0.176,9757
-0.187,9467
-0.115,7981
-0.00528,5566
-0.226,9933
0.00979,5000
0.0801,3070
-0.0346,6082
-0.052,6864
-0.0617,7199
0.154,2372
0.153,2182
-0.0361,7195
-0.0876,9984
0.128,2539
0.137,2148
-0.159,8794
-0.124,7030
-0.195,10026
-0.0853,7185
-0.00344,5247
0.218,1688
-0.0311,6144
0.143,2623
0.123,2309
0.229,1052
-0.293,10340
0.312,1927
-0.229,5928
0.0359,4530
0.108,3423
-0.0835,9324
-0.109,8042
0.191,3576
-0.0917,7069
-0.185,9762
0.0377,3523
-0.0722,9055
0.0102,5072
-0.182,10574
0.175,2193
-0.227,10571
-0.202,10627
0.0703,3434
0.536,25
-0.163,8454
0.199,463
-0.113,8332
0.0132,4929
0.126,1323
-0.0922,7407
-0.0228,5924
-0.06,6427
0.0711,2788
0.276,1284
0.0165,5078
0.0421,4516
-0.205,9700
-0.395,9115
-0.356,10404
0.322,171
0.105,2738
0.366,510
-0.14,8452
-0.147,7215
-0.329,10767
0.0253,4216
-0.141,10064
-0.0207,5560
0.0233,4816
0.0264,4621
0.0422,4387
-0.061,8763
0.428,68
-0.0613,7481
-0.231,9682
0.259,1052
0.121,3212
-0.066,7183
0.0881,3244
-0.0507,6611
0.158,1653
-0.528,10601
0.68,1700
-0.0484,7019
-0.109,9522
-0.0734,6933
-0.239,9705
-0.469,10801
0.0532,3900
-0.14,9111
-0.0104,6175
0.444,455
0.0739,3549
-0.329,10547
-0.0491,6862
0.391,133
0.107,2139
0.375,613
0.0887,2868
-0.00526,5252
-0.0995,5011
0.224,910
-0.164,8950
-0.118,7708
-0.0956,8794
-0.0214,5884
-0.302,10661
-0.0868,8782
-0.111,9439
-0.0891,7224
0.0451,4187
-0.0503,6678
0.35,478
-0.0651,7795
-0.13,8776
-0.0997,8399
0.0685,3375
0.0293,4553
-0.0503,6910
-0.517,10992
-0.286,10194
-0.168,9960
-0.53,9817
0.052,4111
0.205,105
-0.149,9792
-0.0851,8012
0.0569,3987
-0.69,10652
0.503,100
0.0657,2325
0.111,1959
0.173,1912
0.118,2397
0.325,48
-0.0747,6031
-0.297,10930
-0.182,8794
0.191,1033
0.159,2869
-0.68,10934
0.141,3341
0.0958,1719
-0.119,9200
-0.0119,5595
0.00535,5107
-0.104,6511
0.00246,5318
-0.178,10307
0.145,1457
0.151,3086
-0.086,7606
-0.128,7809
0.0292,4700
-0.358,10459
0.357,214
0.274,2432
0.603,4
0.161,2209
-0.676,10554
0.117,2768
-0.24,9409
0.13,3286
-0.0773,7475
0.0769,3618
0.699,109
0.0814,3080
-0.265,10207
-0.113,8267
0.241,1367
0.0922,3910
0.188,2578
0.0926,3073
-0.111,9046
0.141,2681
-0.505,10669
-0.0636,6240
0.513,292
0.0501,3823
-0.0691,7922
0.148,1708
0.151,2548
0.0768,2652
-0.306,10354
-0.0864,6880
-0.219,10757
0.131,3079
-0.000209,5375
0.262,860
-0.0538,5983
0.0695,2534
0.056,2593
0.191,1633
-0.297,10876
-0.771,10236
-0.0434,6136
0.731,129
-0.0154,6210
0.0539,3661
-0.277,9513
0.0545,4484
-0.23,9434
0.19,768
0.0361,3691
-0.163,8314
-0.0253,5962
-0.0315,5921
-0.0391,6380
-0.27,10351
0.11,2564
-0.68,8443
-0.304,10353
0.192,2523
-0.347,9948
-0.35,10932
0.273,44
-0.121,7426
0.677,331
-0.125,7499
-0.224,7107
0.00769,5063
-0.0628,7385
-0.197,7752
0.15,1281
1.27,42
0.343,483
-0.184,10366
-0.0554,7198
-0.291,10406
-0.301,9589
-0.497,10724
-0.068,6081
0.0286,4733
0.493,89
-1.41,10772
-0.0953,8606
0.113,2043
0.44,293
-0.041,7273
0.0105,5029
-0.00339,5081
0.281,778
0.508,973
-0.0761,7972
0.293,677
0.115,2800
-0.122,7127
-0.19,9526
-0.128,8793
-0.0479,6364
-0.138,9636
-0.179,9958
-0.102,6306
0.0179,4700
-0.0168,5977
-0.0504,6146
-0.0764,7993
0.0268,3977
-0.905,10447
0.508,2405
0.224,936
-0.487,10964
0.179,1701
-0.15,9888
-0.111,7828
-0.113,7721
0.119,3139
-0.0663,8602
0.106,840
-0.0207,5898
-0.093,7151
0.0664,4145
0.26,1451
-0.0917,6079
0.32,1043
-0.0766,6628
0.0511,3243
-0.244,10712
-0.00946,5616
-0.248,10393
0.0338,3024
-0.138,9269
-0.392,10435
-0.423,10938
1.24,220
0.159,2164
0.11,2178
-0.298,8438
0.398,179
-0.00317,5484
0.0381,4649
0.327,1567
-0.0966,7996
-0.361,7972
0.272,399
0.267,1441
0.2,1548
0.659,862
-0.184,9557
0.0691,2937
0.19,1259
0.248,1361
0.013,4909
0.054,4428
0.357,176
0.285,480
0.0868,3186
-0.00976,5523
-0.0932,7490
0.571,300
-0.311,6854
-0.184,8085
-0.0659,7031
0.116,2895
0.0381,3921
-0.11,7059
-0.026,6097
0.0738,2607
0.00568,4519
0.213,2243
-0.338,9992
0.0134,4837
-0.00532,5288
0.0829,3277
0.0108,5505
-0.0934,8536
-0.0544,6884
-0.208,8986
-0.194,7738
0.137,919
-0.104,8213
0.0782,3134
-0.208,10194
0.151,2480
-0.0471,5916
-0.1,10564
-0.0476,7496
-0.233,10104
0.0429,3626
0.172,1284
-0.315,9294
0.298,860
0.197,1246
-0.472,10800
0.446,273
0.269,302
-0.343,10899
0.223,1063
-0.262,10442
-0.267,10027
0.384,402
-0.123,8994
0.0218,4916
-0.0514,6173
-0.235,7285
1.26,33
-0.117,8301
-0.214,10313
-0.139,10486
0.434,2040
-0.205,9499
-0.355,10035
0.301,726
0.162,997
0.292,499
0.0894,2187
0.126,1850
0.401,254
0.29,1394
-0.0851,8418
0.109,692
-0.0756,6583
0.161,2923
-0.0747,6927
0.0772,4202
0.121,2205
-0.0784,8060
0.0226,4750
-0.168,9658
0.471,1485
-0.071,8076
0.173,1169
-0.128,8194
-0.229,5174
0.0777,3116
0.00644,4851
0.0413,4327
-0.0229,6206
-0.161,9441
-0.218,10408
-0.474,10874
-0.195,8661
-0.105,8214
0.0899,2280
0.0424,4087
0.105,3119
0.14,2722
0.199,3511
-0.00891,5539
-0.222,9269
0.0578,3749
-0.00763,5401
0.0776,2166
0.135,2390
0.0474,4135
0.108,1675
-0.112,7288
0.186,904
-0.208,9685
-0.155,8886
-0.125,8093
0.171,1873
0.427,992
0.229,697
-0.0551,6084
-0.0767,6927
-0.159,8726
0.0905,2462
0.0271,4389
-0.0734,7289
0.0106,5043
0.383,473
-0.000603,5091
0.284,562
-0.0507,8002
0.516,425
-0.303,10923
-0.017,5751
0.473,587
-0.037,6051
0.0319,4561
0.0109,5030
-0.306,10464
-0.162,7291
0.22,1119
0.0357,3738
-0.0866,7228
0.0431,4500
0.128,1647
-0.185,8939
-0.0224,6036
1.01,2
-0.016,5587
-0.0261,5997
-0.153,6736
0.104,4429
-0.0956,8432
0.15,980
-0.187,9592
0.34,618
0.0252,4767
0.162,3038
0.131,3544
-0.0708,7683
0.041,3854
-0.0835,6596
-0.123,7551
0.416,196
0.00849,5237
-0.203,10019
-0.186,9368
0.117,2160
0.104,3470
0.411,249
0.0937,3475
0.0301,4194
0.0392,4353
-0.111,7737
-0.0336,6551
-0.314,9657
-0.0846,6697
0.199,1505
0.0412,4099
-0.255,10188
0.173,2458
-0.179,8895
0.0896,3161
-0.161,7368
-0.321,10899
0.0995,3372
-0.0306,6071
0.226,1079
-0.323,10513
-0.0619,8056
-0.0482,7084
0.198,1755
0.555,470
0.324,1956
0.239,834
-0.125,9427
0.155,1817
0.161,1530
0.0227,4827
0.122,2219
0.0134,4967
-0.0607,6520
-0.0271,6643
0.218,2478
-0.0307,5916
-0.0574,7179
-0.101,6444
0.218,552
0.0268,4431
-0.151,9226
0.0917,3211
0.0373,4209
-0.111,8471
-0.21,10088
-0.0547,6179
-0.0945,8497
-0.19,8818
-0.398,9416
-0.0114,5974
0.126,2521
-0.00561,5617
-0.15,9196
0.0347,4432
-0.358,9798
0.33,1424
-0.212,10125
-0.123,9070
0.103,3457
-0.0802,6760
0.0367,4255
-0.0928,7801
0.102,1321
0.144,815
0.364,1000
-0.423,9442
0.254,1884
-0.449,10992
0.302,118
-0.0261,6238
0.0241,4697
-0.105,8101
0.24,2551
-0.155,7927
0.0159,4919
-0.00907,5631
-0.486,10996
-0.232,10597
-0.478,9042
0.339,876
0.156,593
0.0428,4173
0.175,855
0.387,547
-0.0569,7863
-0.0381,6201
0.0207,4863
-0.15,8777
-0.0803,7683
0.204,2406
-0.00696,5595
-0.0175,5864
-0.0991,8968
0.0268,4622
-0.00444,5379
-0.481,9968
0.0883,4097
-0.128,8170
-0.328,10809
0.237,802
-0.108,7070
-0.0833,6592
-0.109,7146
-0.104,6889
-0.223,10316
-0.239,9601
-0.0936,7070
0.0717,3237
0.214,1119
0.482,860
-0.0572,8252
0.0202,4280
-0.354,10777
-0.149,7910
-0.129,8793
0.0332,4474
-0.0758,7724
0.087,3056
-0.00394,5418
0.152,2519
-0.254,7410
0.198,2946
-0.167,9255
0.26,614
-0.108,8892
-0.0886,7415
-0.302,10574
0.104,2742
-0.0194,6228
0.123,923
0.683,188
-0.0962,8201
-0.286,9200
0.0716,3811
-0.23,10771
-0.0385,6490
0.158,2196
-0.111,7600
0.0346,4518
-0.0868,5867
-0.284,10333
0.0739,1224
0.04,4125
0.0838,2961
-0.0205,5915
0.0705,4178
-0.0502,6114
-0.0745,7688
0.11,3816
-0.0572,6208
-0.468,10771
0.0488,4229
-0.0193,5673
-0.127,9597
0.199,846
0.648,194
0.19,1968
-0.0735,6370
0.116,1658
-0.0193,6492
0.00338,5032
-0.125,7787
0.735,165
-0.138,8945
-0.111,8944
0.063,3453
0.258,1424
-0.03,6042
-0.235,9735
-0.0315,5586
0.0997,3492
0.0781,2762
0.378,133
0.16,2745
0.0636,3317
-0.0736,10167
0.232,183
-0.22,10771
-0.118,9096
-0.343,9652
0.178,1970
0.124,1569
0.244,1506
0.0835,3435
-0.216,9673
-0.2,10177
-0.281,9365
-0.357,9577
0.0742,3393
0.0679,2317
0.412,174
-0.0988,8086
0.158,3462
0.146,2158
-0.175,8830
-0.0809,8406
0.124,3332
-0.02,5764
-0.0818,5771
0.35,1418
0.003,5073
0.0173,4720
-0.0508,6047
-0.067,6258
0.176,1507
0.145,1481
-0.228,8918
0.0131,4850
0.0772,3438
0.124,1975
0.306,388
-0.0209,5517
0.32,995
-0.105,7972
-0.122,8654
0.0114,5152
0.664,44
0.139,2383
0.000189,5093
0.0939,3830
0.625,250
0.203,2010
-0.00128,5216
-0.00954,5802
-0.0119,6066
-0.147,10171
0.16,2186
-0.257,8502
0.137,2569
0.178,2045
0.0554,2672
-0.137,9531
-0.173,7414
-0.213,9742
-0.245,9615
-0.0211,5878
0.417,485
-0.137,10269
-0.0704,7415
0.0959,3985
-0.236,9184
-0.43,10994
0.162,2719
-0.178,10121
0.0306,4425
-0.05,5974
-0.0538,5811
-0.0449,6689
-0.192,9911
-0.241,10742
-0.0942,7507
0.202,1353
0.0513,4467
-0.192,9871
0.0918,2492
0.0652,3302
-0.0203,5849
0.879,27
0.231,1711
0.162,3049
0.0492,2815
-0.179,10450
-0.143,10370
-0.0167,5176
0.158,2790
-0.376,10717
-0.0567,7392
-0.0668,6899
-0.324,10497
-0.168,9961
-0.0329,6727
-0.113,9252
-0.166,9792
-0.00661,5294
0.271,272
-0.166,7896
-0.303,9522
0.152,1410
-0.171,10890
-0.109,7721
-0.0679,6952
0.22,731
-0.135,6694
-0.177,10512
-0.0491,7002
-0.0201,5957
-0.0818,7089
-0.854,11016
0.206,3105
-0.26,9493
0.0125,5121
-0.0932,6544
-0.169,9287
0.307,1446
-0.0419,5121
-0.0629,8703
0.0993,2338
-0.142,7059
-0.134,8388
0.0877,3452
0.0836,2939
0.0907,1449
-0.105,9020
-0.0616,6485
0.366,1496
2.24,48
-0.149,8554
-0.0453,9273
0.121,1469
0.153,2292
-0.102,8764
-0.38,7446
-0.26,8482
-0.128,8181
-0.0205,5902
0.32,311
-0.116,8040
0.0499,3773
-0.484,10069
-0.0718,7890
-0.112,9555
-0.321,10476
0.308,1619
0.0662,4363
0.467,276
0.0434,4307
-0.174,6801
-0.241,9742
-0.22,10044
-0.21,9486
-0.165,9072
0.207,263
-0.168,9179
0.0304,4566
-0.414,10930
-0.396,10732
0.104,3236
0.0943,3321
-0.0736,8141
0.055,3371
-0.521,10406
-0.259,6861
-0.356,9704
0.21,647
0.0157,4739
0.0293,4415
-0.112,6843
-0.272,9052
-0.103,8308
-0.21,8620
0.0523,4140
0.0819,3372
-0.0505,6927
-0.0763,8925
-0.0131,6042
0.172,467
-0.00659,5947
-0.546,7625
0.0566,2813
0.311,429
0.183,1655
0.0829,2141
-0.00658,5099
0.117,3662
-0.439,10127
0.192,2630
-0.521,10715
0.00798,4990
-0.22,10050
-0.232,9045
0.6,201
0.294,1802
0.0983,3202
-0.175,9295
0.214,1910
-0.0394,6959
0.0897,2809
0.107,2108
-0.0506,6791
0.0448,3817
0.154,1018
-0.125,7299
-0.0606,5556
0.18,2531
-0.288,9750
-0.00901,5653
0.158,1837
-0.0392,6211
0.417,668
0.163,2828
0.158,2683
-0.013,6279
-0.218,10168
-0.072,6578
-0.182,9797
-0.59,9365
0.057,3931
-0.0982,7807
0.0544,4081
0.124,2862
-0.088,8637
0.0224,5005
-0.425,10056
0.0656,2686
-0.219,10579
-0.053,6059
-0.228,8544
-0.0183,6087
-0.0143,5180
0.0483,3362
-0.164,9805
-0.0198,5609
-0.0608,6574
0.0688,3822
0.747,1431
0.0627,3452
0.0134,5150
0.122,3649
0.367,135
0.0086,5197
0.16,2697
0.0108,4948
-0.113,8372
0.0323,4284
-0.0336,6107
-0.0854,7186
0.113,3878
-0.0588,6458
0.459,177
0.164,2395
0.732,1572
-0.228,9049
1.24,709
-0.00558,5802
0.0102,4935
-0.83,8878
-0.18,7910
-0.00988,5881
-0.17,7819
0.0751,3256
-0.0836,8665
-0.0438,6237
0.0771,3809
0.0197,4918
-0.015,5224
-0.0403,7053
-0.116,8810
0.0416,3841
0.573,482
-0.07,6810
0.248,1830
-0.12,8256
-0.0486,6821
-0.159,7769
0.168,2414
-0.0127,5423
0.621,97
-0.0493,6474
-0.0787,8685
-0.0883,7120
-0.191,9293
-0.349,9169
-0.516,8981
-0.263,10434
0.0373,3316
-0.0873,7784
0.349,799
-0.0952,6534
-0.216,9267
0.264,227
0.156,2581
-0.0324,6061
-0.391,10364
0.179,2335
0.224,554
-0.0195,5929
0.173,1544
0.247,531
-0.000417,5403
0.0469,4507
-0.0505,6805
0.0261,4554
0.143,1595
-0.124,7613
-0.0848,7483
0.0705,4026
0.0559,4186
-0.0848,7945
-0.0952,7465
-0.0257,5909
-0.0255,6069
-0.0829,6352
0.218,1060
-0.0668,8013
0.358,129
0.144,2160
0.167,1421
-0.189,10057
0.108,3780
0.194,390
-0.292,10395
0.332,402
0.291,466
0.181,2821
-0.242,8423
0.0413,3686
-0.0938,8249
-0.168,10500
-0.363,10091
0.683,285
0.191,1420
-0.118,7938
0.153,753
-0.0694,7552
0.0415,3978
-0.212,7489
-0.113,8816
-0.0589,7663
0.131,1383
-0.205,9878
0.113,3724
0.583,128
-0.28,7673
-0.00984,5850
-0.202,9568
0.204,2084
0.467,349
0.0525,3449
0.0327,4120
-0.022,5886
-0.0498,7213
-0.0882,8309
0.115,2030
-0.375,10329
-0.303,10401
0.253,1937
-0.102,6990
0.0501,4201
-0.105,6731
-0.02,6073
-0.0649,7334
-0.331,10601
1.6,12
-0.0844,9861
0.0712,3899
0.0965,2756
-0.06,9263
-0.123,7983
0.0923,2837
-0.146,8004
0.0138,5078
0.223,73
-0.115,7948
0.273,812
-0.142,8253
-0.148,6974
0.196,1220
-0.118,8069
-0.016,5939
0.143,3564
0.358,267
0.418,551
-0.0334,5969
0.115,1414
0.196,534
-0.244,9754
-0.2,10206
0.0976,3472
0.00332,5384
0.164,931
-0.0406,6297
0.274,374
-0.0929,7341
-0.174,10571
0.208,736
0.236,471
-0.154,8651
-0.192,10160
-0.179,8938
0.0544,4328
0.0856,3487
0.0907,1412
-0.00685,5604
0.0322,3993
0.318,1331
0.0816,3739
0.127,1018
-0.0389,6879
0.392,176
0.419,1054
0.172,2627
0.00958,4935
0.166,1629
0.188,516
-0.206,10030
-0.403,10930
-0.166,8779
-0.0152,5702
-0.0841,8311
-0.28,10651
0.281,913
0.232,1340
0.574,6
0.178,2320
0.139,390
0.0335,4343
0.131,2476
-0.272,10622
-0.315,10701
0.118,3487
-0.185,10558
-0.139,8977
-0.134,8249
0.064,3823
-0.271,10511
0.218,503
-0.0455,6657
0.0208,4726
-0.167,6573
0.234,957
0.206,2049
0.486,653
0.00798,5023
-0.0511,7053
0.242,1003
0.0779,3584
-0.449,9692
0.0573,3575
-0.0491,6368
0.197,1463
0.0708,3697
-0.045,5717
0.359,653
-0.133,8363
0.107,2238
-0.218,9838
-0.325,10727
0.196,2189
0.0575,3949
0.109,2270
-0.122,8784
-0.0665,6046
0.402,253
-0.509,10701
-0.329,10123
0.0835,3314
0.0246,4718
0.355,973
0.0549,3953
0.0457,4163
-0.0838,6150
-0.023,6889
0.307,1006
0.35,995
0.0536,4333
-0.0721,6622
-0.193,9326
-0.137,9768
-0.0664,7667
0.143,2882
-0.13,8001
0.425,298
0.268,386
-0.183,8282
-0.275,10486
0.152,2651
-0.144,8066
-0.159,9355
0.0896,3669
-0.383,10878
0.333,592
-0.0135,5624
-0.273,9613
-0.111,7569
-0.0622,6720
0.145,1253
0.17,1786
0.00922,5174
0.0195,4709
0.0188,4718
0.178,1109
0.00495,5191
0.17,790
-0.0563,7384
0.124,2589
0.0758,2268
0.296,1085
0.0334,3867
-0.0524,8190
-0.0605,6725
-0.0398,5763
0.185,3086
-0.0272,5864
-0.268,10513
-0.0782,10038
-0.13,8582
0.315,617
-0.112,8458
0.216,2299
0.53,83
0.0582,3227
-0.168,9497
-0.207,9617
-0.0401,5728
-0.142,8900
-0.0905,8955
-0.0435,6373
0.0931,3232
-0.0336,5853
-0.00201,5452
0.184,2927
-0.0776,9151
-0.0623,8347
-0.117,6762
-0.353,9436
-0.356,10312
-0.528,10114
-0.0627,6721
-0.256,10235
-0.348,9831
0.0386,4379
0.28,1295
-0.257,8888
-0.13,9829
0.05,3946
-0.0515,6701
-0.147,9161
0.685,204
0.0291,4849
0.193,1941
-0.00708,5796
-0.133,8753
0.115,2574
-0.156,9154
0.0178,4704
0.121,2449
-0.329,10588
0.232,1818
-0.283,10756
0.108,2793
-0.0851,5429
0.111,2296
0.184,1225
0.539,956
-0.0409,6120
0.133,2678
-0.146,7926
-0.124,9282
-0.233,10097
0.278,885
0.556,232
-0.0864,7850
-0.0475,6519
0.244,398
0.0168,4376
0.276,977
0.0132,4800
-0.141,8260
-0.12,7854
0.092,1885
-0.000162,5436
-0.132,6329
0.4,820
0.0907,3207
0.204,878
-0.0854,8035
0.0106,5143
-0.193,9220
0.21,1421
-0.86,10763
-0.344,10856
0.335,2076
0.0569,3103
0.211,817
-0.0393,6085
0.258,809
-0.00248,5522
-0.0675,7897
-0.391,10369
0.301,816
-0.237,9758
-0.291,9898
-0.0902,6976
0.048,3972
0.0107,5108
0.195,2025
0.404,231
-0.0915,8636
0.0949,2841
-0.102,8201
0.214,1249
0.0709,2828
-0.314,10919
-0.149,10303
-0.117,8857
-0.0191,6305
-0.0701,8077
0.121,1299
-0.334,10044
-0.044,7629
0.0459,4313
-0.112,8328
0.339,709
-0.00161,5528
0.115,2805
0.005,5206
0.00667,5017
-0.0203,5918
0.0916,2056
-0.0624,6809
0.132,2319
-0.142,7786
0.348,2095
-0.0369,7070
0.0372,3209
-0.137,8795
0.126,2901
-0.0261,6107
0.279,1948
-0.0132,5636
0.108,2735
0.132,3220
0.598,273
0.0424,4480
0.0176,4923
0.214,1857
-0.0556,7029
-0.648,10190
1.37,80
-0.273,10526
-0.0462,4856
-0.0213,5663
-0.207,8370
-0.25,9700
0.226,2751
-0.179,10316
0.104,2944
0.325,564
-0.136,8350
-0.143,7201
0.224,1681
-0.0181,6122
-0.00821,5561
-0.0234,6111
0.234,676
0.326,1046
-0.0504,6791
-0.0511,8459
-0.137,9163
0.0904,3354
0.254,2618
-0.0118,5821
0.145,455
0.0151,4936
0.214,2342
-0.254,9700
-0.107,5849
0.314,2282
-0.0393,8629
-0.134,10797
-0.105,7296
-0.272,9395
0.0442,4058
-0.222,9399
-0.0308,5884
0.14,1376
-0.00988,5764
-0.275,9810
-0.12,9142
0.418,442
-0.00956,5725
-0.0424,7176
-0.349,11020
0.179,1582
0.653,45
-0.0641,6487
-0.131,6730
-0.0553,6168
0.234,219
0.0677,3359
-0.4,9461
0.225,809
0.013,5003
-0.0644,7113
-0.0456,7228
-0.0673,8073
-0.0428,5915
-0.169,10075
0.0279,4522
0.0853,2754
0.176,286
-0.0469,6859
-0.157,9762
-0.114,6870
-0.25,8510
0.0542,3657
-0.0286,5947
0.000617,5374
0.0819,3567
-0.0357,6180
0.115,1726
0.0639,4307
0.0106,4921
-0.196,9277
-0.202,9976
0.126,3486
0.0805,3494
-0.0643,7961
-0.00695,5732
-0.279,9522
-0.0582,6880
-0.0203,6013
0.122,1400
0.108,2567
0.0913,2500
-0.0586,7379
0.378,563
0.0247,4629
-0.141,6766
0.369,659
-0.0117,5733
-0.267,9779
0.0562,3861
0.0164,4708
0.573,975
0.216,929
0.165,887
-0.153,8837
-0.171,10103
0.0281,4670
0.0349,4433
-0.112,6962
0.0667,3034
-0.0175,5942
-0.0908,7066
0.0909,3032
0.158,2731
-0.246,9723
0.0767,3547
-0.251,10295
0.0814,3581
0.0299,4526
0.00702,4953
-0.0386,7977
0.473,1078
0.498,49
-0.0437,6618
0.202,1381
-0.256,6457
0.234,101
-0.0258,6830
0.309,1584
0.0246,5017
-0.316,9327
-0.916,10504
0.00176,5377
-0.0287,6268
-0.0699,7235
0.212,444
0.287,1525
-0.0185,5894
0.0649,3982
-0.284,10187
0.185,1668
-0.222,7985
-0.154,8227
0.199,685
0.0768,3655
-0.0849,6674
0.122,2387
-0.366,10312
-0.00252,5381
0.208,1132
-0.172,8121
-0.027,6646
-0.0647,7543
0.0234,4475
-0.168,7598
0.32,1171
0.102,2363
-0.00783,5500
0.187,1738
-0.0341,6581
-0.11,7476
-0.355,10609
-0.0277,5856
0.0839,462
-0.00227,5469
-0.164,8458
-0.255,8821
-0.271,9698
0.109,2158
0.116,219
-0.137,9250
0.17,1489
0.0407,4238
-0.175,9570
-0.0131,5411
0.0421,4175
0.0271,4749
0.264,1040
0.527,221
0.148,2294
-0.0479,6117
0.213,249
0.0334,4497
-0.00668,5105
0.116,2192
0.135,2960
0.112,2916
0.0819,2781
0.185,1703
-0.213,10259
0.02,4809
-0.244,9612
0.192,187
0.138,447
-0.216,9322
0.0407,4258
-0.0187,5896
-0.0956,8191
0.219,330
-0.0138,5536
0.355,609
0.447,41
-0.308,10156
-0.546,10954
-0.0154,5259
-0.089,8804
-0.195,9720
0.303,1716
0.605,1070
-0.277,9959
-0.521,11028
0.00758,5109
-0.316,10909
-0.0565,7255
-0.2,8962
0.0657,3556
0.112,1890
-0.0601,7168
-0.142,6780
-0.172,9099
0.0837,3652
0.125,2970
-0.0777,8057
0.104,2032
0.0602,3874
-0.0869,6700
-0.313,9776
-0.0837,7234
-0.0235,6295
0.0551,3475
0.175,3218
0.731,228
0.351,684
-0.182,5229
-0.0311,7064
0.263,460
-0.793,10213
-0.0888,7661
-0.216,8972
-0.672,11010
0.482,159
0.125,1822
-0.107,8997
-0.333,10911
-0.111,7796
0.0189,4576
-0.0638,7253
0.0545,4456
0.102,3351
0.0742,3541
0.693,378
-0.149,8341
-0.0173,5908
-0.00258,5302
0.201,1592
-0.109,8419
-0.191,7739
0.045,4194
0.377,168
0.256,1714
0.0425,4298
0.182,2936
0.266,1151
0.00255,5362
0.0811,1801
0.184,604
0.0821,3409
-0.0393,5623
-0.169,9896
-0.381,10049
0.285,443
0.318,576
-0.184,10283
-0.336,9371
-0.0463,6666
-0.0643,6513
0.567,416
-0.18,9104
-0.253,10101
-0.107,4876
0.11,3060
0.254,2582
-0.0377,6492
-0.166,10645
-0.0758,6764
-0.0362,6182
0.0415,4482
-0.689,7796
-0.115,10053
-0.52,9738
0.0442,4066
-0.144,9153
-0.773,8928
0.562,806
-0.0695,7692
-0.0955,7888
0.112,3230
0.0635,3543
0.0183,4933
-0.054,6261
-0.0148,5623
0.0648,2726
-0.145,8274
-0.242,8387
-0.394,8007
0.271,1895
-0.000288,5369
0.0778,2147
-0.143,6569
0.563,794
-0.172,9089
0.0301,4659
-0.0808,7874
0.0516,3571
-0.161,10111
0.039,4269
-0.136,5778
-0.127,7952
-0.0643,7869
0.0537,3679
0.38,437
-0.0151,5492
0.634,50
0.114,2878
0.175,887
-0.218,10121
-0.116,7751
-0.0528,7420
-0.086,8513
0.0895,3099
-0.0115,5723
-0.103,7948
-0.0356,5635
0.113,1921
-0.104,8712
0.101,2941
-0.0499,6522
-0.223,8810
-0.134,8547
-0.207,10534
-0.00496,5403
-0.0564,6133
0.0945,3116
-0.124,8038
0.192,2116
-0.0149,5539
0.0914,3133
0.0485,4441
0.0682,3293
0.397,706
-0.078,6813
0.086,2867
0.028,4849
0.447,834
-0.0283,6232
0.121,2326
-0.0765,7132
-0.00343,5660
0.227,716
-0.114,5544
0.264,766
-0.214,9137
-0.233,10322
0.109,1068
-0.0337,6694
0.0323,4633
-0.283,9537
0.0328,4129
-0.195,8664
0.207,1229
-0.116,7980
0.245,1889
0.0512,4326
-0.12,8816
0.507,9
0.0243,4394
0.0126,5065
-0.235,10512
0.0752,3074
0.175,1973
-0.0246,6414
0.166,2449
-0.00437,5620
-0.0389,5359
-0.271,7559
-0.0379,5482
-0.0176,5701
0.0153,5124
-0.00967,5863
0.111,2499
-0.0536,7685
-0.15,9198
-0.254,9483
-0.12,9237
-0.137,10662
0.165,1901
-0.0581,6564
0.249,2522
0.216,3017
-0.204,9231
0.376,2215
-0.139,8117
-0.0332,6073
0.116,2997
0.114,2548
0.075,3081
-0.0667,7668
0.00434,5391
0.254,1026
-0.155,8233
-0.559,10120
0.177,1490
0.00749,5054
0.161,1471
-0.326,10718
0.0159,4954
-0.0577,6426
0.102,3321
0.0918,2501
0.339,1219
-0.102,7867
0.0168,4776
0.0685,3401
0.0555,2226
0.182,2658
0.167,1457
-0.107,8595
-0.135,8759
0.00317,4787
-0.00973,5882
-0.0987,8443
-0.402,10428
0.109,3680
0.505,346
-0.432,9263
-0.0394,6765
0.00113,5078
-0.0822,7404
-0.279,10901
-0.0131,5756
-0.0953,7499
-0.0916,9076
-0.191,9056
-0.143,8148
-0.0399,5751
-0.228,8183
0.155,2766
-0.346,10920
-0.225,9067
0.355,1132
-0.039,6180
-0.048,5807
-0.126,7717
0.068,3951
-0.0901,8780
0.027,4443
-0.17,9494
-0.00544,5531
-0.49,10765
-0.00315,5364
0.045,3644
0.126,2725
-0.209,8204
0.0186,4466
0.671,809
-0.0599,7768
-0.0702,7414
-0.107,7654
-0.404,10960
0.0665,3802
-0.0574,8244
0.104,1927
0.0303,4532
0.36,790
0.0347,4362
-0.0277,5888
-0.0362,6616
-0.323,10559
-0.138,8809
0.191,426
0.0313,4422
-0.488,10834
-0.467,10137
-0.0771,8183
0.082,3317
-0.00762,5835
-0.439,10524
-0.303,10068
-0.353,8031
-0.0489,6986
-0.0263,6547
0.111,3260
0.118,3481
0.16,2180
-0.0118,5490
0.0457,3838
-0.181,10226
-0.0175,5930
-0.0158,5441
0.0134,5128
-0.436,10978
0.207,2352
-0.136,8591
0.216,674
0.143,1113
-0.236,10019
0.366,1495
-0.154,10119
-0.0339,6506
0.268,824
-0.103,7470
-0.0351,6353
-0.686,9708
-0.0378,6400
0.176,1164
0.0415,4278
-0.155,9345
0.556,337
-0.231,10495
0.005,5077
0.191,1056
-0.167,5003
0.124,3348
0.0886,3630
-0.146,7404
-0.115,7751
0.0701,3436
1.05,0
-0.326,7082
-0.0117,5710
-0.0458,7327
0.0879,1699
-0.0396,6311
-0.0845,8748
0.00882,5096
0.424,406
-0.266,10147
-0.0371,6643
0.381,908
2.22,119
0.279,1407
0.523,657
0.0264,4337
0.0658,2169
0.0232,4720
-0.0101,5403
-0.515,10701
-0.174,8680
-0.112,8496
0.0949,1519
0.291,1877
-0.00453,5214
-0.0267,6159
0.333,1370
-0.114,7483
-0.121,9877
0.0628,3924
0.174,2546
0.255,1346
-0.367,6348
-0.102,8251
0.128,952
-0.0516,6670
-0.447,10922
-0.427,10914
0.156,776
0.0335,4377
0.0834,2214
-0.141,8921
0.0473,4343
-0.0704,6801
0.0517,4103
-0.112,7873
0.0136,4704
-0.17,10075
0.0272,4784
0.267,828
-0.167,8019
-0.0463,7370
-0.0255,6084
0.204,738
-0.307,10556
0.355,820
-0.066,7886
-0.154,10133
0.104,2153
0.00167,5038
-0.0393,6444
0.0738,3065
-0.259,8130
0.00628,4898
-0.0465,7705
-0.147,8670
0.117,2568
-0.215,8855
0.0855,3842
0.172,2030
0.268,331
0.174,1704
0.0507,4076
-0.0625,7165
-0.271,9631
-0.0665,6467
-0.0775,8308
-0.000673,5240
-0.542,10093
-0.152,10401
0.536,262
0.199,1648
0.208,2911
-0.0262,5760
-0.0437,6479
0.0433,3649
0.289,689
-0.358,10730
0.225,1206
0.101,3537
0.961,959
-0.342,10213
-0.0112,6050
-0.0421,6790
-0.0058,5713
0.927,204
-0.382,9169
-0.126,9355
-0.0404,6929
-0.133,7890
-0.358,10703
0.231,3083
0.143,3183
0.425,860
0.242,619
-0.0459,6394
-0.0856,7233
-0.0326,6248
0.185,2597
0.376,521
-0.32,9758
0.0711,2624
-0.0744,7564
-0.234,9314
0.315,993
-0.0693,7354
0.0136,4963
-0.0368,6129
0.0541,3618
-0.116,9976
0.251,895
0.0895,2122
0.166,1699
0.0259,4810
-0.124,7648
-0.0514,5099
-0.0492,6129
-0.0644,6542
0.226,826
0.0567,3962
-0.334,10666
-0.015,5399
-0.213,7660
-0.055,7117
-0.18,9438
0.0747,4080
-0.0413,6800
0.28,530
-0.0575,6342
0.103,793
-0.207,10137
-0.0294,5400
-0.292,8638
0.0105,4999
-0.121,8400
0.189,1240
-0.0425,7088
-0.0905,8494
0.2,840
0.257,853
0.172,2770
-0.344,10976
-0.0786,8968
0.438,797
-0.15,7937
-0.059,6367
0.306,1241
0.253,820
0.0017,5272
0.0103,5066
-0.115,8317
0.0575,4241
0.0224,4865
-0.143,8950
-0.0364,6452
-0.246,10202
0.104,3966
-0.255,7031
0.0927,3689
-0.0147,5829
0.00132,5195
-0.545,7723
0.00125,4924
-0.127,6894
-0.206,8932
-0.126,8376
-0.0526,7975
0.097,2408
0.527,875
-0.221,10212
-0.0439,6390
-0.0615,7817
0.0195,4900
-0.0421,6933
-0.102,8470
-0.0912,7828
-0.166,8370
0.0792,1607
0.0166,4480
0.24,538
-0.286,8471
-0.216,10026
0.288,1212
-0.262,10746
0.0905,2424
-0.0792,7147
0.149,715
0.0752,2589
-0.325,9987
-0.223,10766
-0.105,8600
0.228,711
0.156,1994
-0.265,9243
-0.0896,7586
-0.0677,7336
0.194,576
0.248,1452
-0.162,9506
0.11,3638
-0.181,8515
-0.134,9274
-0.279,9944
0.0905,2292
0.0964,3707
-0.0938,6993
0.208,272
0.0845,3621
-0.127,8108
-0.14,7677
-0.288,10935
-0.0132,5471
0.107,3628
-0.139,9956
0.0495,3704
0.265,576
-0.301,9775
-0.0635,6541
0.215,2420
0.158,1144
-0.00155,5669
0.75,118
-0.338,9204
-0.507,10953
-0.0935,6528
0.468,64
-0.0574,6447
-0.104,7662
-0.191,8767
-0.0508,6620
-0.138,7826
0.567,239
0.142,1630
-0.138,8960
-0.0166,5450
-0.144,7712
0.579,918
-0.0838,7726
0.326,982
0.0285,4389
0.0758,4011
-0.576,10631
0.057,3631
0.189,2096
0.141,1108
0.602,753
-0.179,8505
0.169,1686
0.259,719
-0.0316,6983
-0.0317,6133
0.0327,4259
0.0513,3758
-0.0726,6098
-0.193,8662
-0.16,9022
0.0432,4053
0.767,36
0.485,321
-0.285,9965
-0.053,6225
-0.0733,7379
-0.688,11023
-0.0132,5513
0.0715,2732
-0.128,9176
0.0311,4064
0.0493,2696
0.055,2604
