coef,rank
0.133,3291
0.213,1419
0.027,4495
-0.3,9346
-0.115,4875
-0.687,10553
0.46,1513
-0.158,9231
0.13,1403
-0.287,10367
-0.0813,6985
-0.285,9911
-0.174,9667
0.097,1976
0.244,609
-0.0906,7465
-0.211,7438
0.718,569
-0.153,10518
0.133,520
0.0819,3105
-0.0481,6898
-0.421,10111
0.212,2559
-0.164,9448
0.0656,3738
-0.27,9392
-0.192,8875
-0.198,10704
-0.425,8498
-0.0186,5742
-0.0193,5959
-0.021,5807
0.23,2478
0.0392,4276
-0.149,7908
-0.0667,7424
0.139,920
0.185,1348
0.0148,4801
0.0517,4250
0.117,2882
-0.0748,7885
-0.167,10920
-0.0849,7189
0.252,595
0.0615,4141
0.417,676
0.017,4350
-0.108,10146
0.178,2374
-0.0536,7113
-0.256,9661
-0.00896,5431
-0.228,9499
0.00191,5136
-0.0736,7246
0.278,1585
-0.308,9094
0.0644,4005
0.123,1072
0.0788,3046
-0.222,9191
0.262,1218
-0.109,9267
0.228,103
-0.0912,7717
-0.0563,7672
0.102,2764
0.0572,3423
-0.00344,5313
0.075,4224
0.197,838
0.111,2287
0.312,559
-0.332,10296
0.35,1637
0.00214,5419
-0.206,10274
0.0486,3832
-0.193,10197
-0.145,8932
0.557,791
0.21,2438
-0.178,10565
0.00549,5124
0.29,552
-0.00948,5489
-0.182,9132
-0.199,8258
-0.13,9864
0.00704,5088
-0.0478,6306
0.0771,3572
0.528,329
-0.492,10935
-0.132,7794
-0.00763,5577
-0.177,7733
0.00301,5499
0.0375,4273
-0.0251,5890
0.0684,3273
0.151,1385
-0.00374,5315
0.03,4691
0.0481,4382
-0.332,10197
-0.0455,6233
0.0275,4651
0.0613,3860
-0.097,7793
-0.298,7659
0.16,2792
0.0378,4125
-0.0253,6750
0.126,3193
-0.101,8273
0.271,92
-0.585,11027
0.0673,3789
0.0234,4314
0.0753,2769
0.000352,5497
-0.262,9258
-0.204,7380
-0.154,10113
-0.332,10634
0.133,3081
-0.133,8280
-0.283,10186
0.463,387
0.231,400
-0.169,9837
-0.00667,5219
0.0883,2482
0.624,2145
-0.43,9955
0.203,482
-0.0548,7116
0.0235,5098
0.000409,5548
-0.0415,5969
0.0375,4555
0.159,1882
-0.103,8479
0.264,1448
-0.0756,7116
0.282,227
0.314,1252
-0.175,9937
0.0378,4035
0.126,3869
0.039,4246
0.132,3631
0.0477,4177
-0.071,7819
-0.0231,6057
0.212,2290
-0.0168,5784
-0.0968,8019
0.213,821
0.0722,3813
-0.0468,7822
-0.28,10551
0.154,2275
0.163,1068
0.0154,4743
0.0395,4628
0.0336,4215
-0.115,8012
0.267,1970
0.0624,3133
0.0093,4808
-0.013,6133
-0.115,8540
0.0805,2703
0.26,1323
-0.15,6870
0.0279,4010
0.0327,4532
-0.0586,6817
0.0522,3968
-0.266,10626
0.0298,3948
-0.0151,6131
-0.142,9622
0.0278,4606
0.0967,3345
0.0929,2703
0.139,3612
0.183,941
0.0575,3568
0.00158,5489
0.123,1873
0.0505,4108
-0.432,10434
-0.102,8410
0.455,291
0.164,2198
0.0149,4732
0.13,2832
0.276,392
0.366,1338
-0.0516,7374
-0.0361,6488
0.202,1614
0.0501,4450
-0.171,9324
0.252,1294
0.0263,4384
0.0194,4523
-0.0116,5645
0.0614,4060
0.263,1462
0.0618,3791
-0.0191,6659
-0.155,9892
0.139,2276
0.624,41
0.354,959
-0.386,10305
0.0108,5129
0.0204,4490
-0.213,10941
-0.388,10662
0.33,1302
0.0863,3441
-0.0033,5540
-0.00484,5688
-7.54e-05,5457
0.111,3004
0.0315,4817
0.235,1364
-0.00178,5241
-0.113,10286
-0.0425,6089
0.167,2144
0.333,1531
-0.452,10973
-0.193,8719
-0.2,5081
-0.00294,5223
-0.0352,6424
-0.246,10231
-0.067,6955
0.242,321
-0.0512,6782
-0.00585,5535
-0.301,10795
1.42,656
0.29,1609
-0.00999,5698
-0.0488,7546
-0.00624,5274
0.222,2624
0.454,874
-0.605,10426
-0.0744,7533
0.116,2131
0.238,679
-0.0992,8226
-0.321,10681
0.126,2767
0.238,754
0.0437,4185
-0.34,9711
0.135,2274
-0.214,10119
-0.268,9508
0.0325,4800
-0.0251,6707
-0.0748,7317
0.36,316
-0.0491,6412
0.0769,3298
0.197,1290
-0.232,9270
0.0168,5043
-0.153,8610
0.00813,5288
0.156,1670
0.167,1432
0.113,3413
-0.164,8874
-0.321,10287
0.118,2979
-0.186,9602
-0.0295,6859
-0.117,8399
-0.335,10630
0.194,2301
-0.139,8007
0.034,4573
-0.0889,9115
-0.107,8950
0.43,984
0.154,1785
-0.102,6878
-0.29,9357
0.0126,4960
0.0586,3444
-0.133,8869
0.0109,4785
-0.188,9470
-0.253,8581
0.0218,4199
-0.284,10091
0.336,173
-0.11,6772
-0.14,7302
-0.259,10852
0.0374,3761
-0.225,10479
0.0188,5006
-0.576,10726
-0.14,7763
0.272,1130
-0.582,10990
-0.242,9009
0.125,3351
0.0438,4363
-0.258,9402
-0.19,7316
-0.136,9734
-0.0747,7462
0.115,2103
-0.14,8619
-0.111,9474
0.0632,4379
-0.105,9234
0.061,3466
-0.185,8480
0.083,3689
0.0984,2660
-0.235,8107
0.0391,3925
0.133,1444
-0.0849,8195
0.0337,4251
-0.217,10230
-0.109,7226
-0.0276,6377
-0.208,8188
-0.107,6677
-0.115,9908
0.163,580
-0.244,9814
-0.248,10750
-0.215,10099
-0.468,7762
0.146,3598
-0.371,5966
0.619,1709
0.294,2101
0.457,2021
0.164,2677
-0.201,9266
0.00467,5279
0.122,2418
0.0965,1511
0.0133,4449
-0.0735,4866
-0.0661,6603
0.114,2966
-0.116,7581
-0.0487,6771
-0.134,10113
-0.251,7871
-0.000372,5344
0.221,1051
-0.0472,6340
0.42,573
-0.0973,8576
0.218,1367
0.141,2853
-0.183,8219
-0.122,6436
0.35,457
0.0147,4836
-0.317,9672
0.0311,3853
0.0985,3319
-0.591,10642
-0.0174,5900
-0.108,8446
0.0467,3952
0.46,172
0.455,1504
-0.0582,6306
0.132,1544
-0.117,8585
0.247,902
-0.456,10554
0.0706,3766
-0.257,8517
-0.0425,6337
-0.0247,6243
-0.655,10906
-0.13,8923
-0.197,9091
0.145,2021
0.11,2584
-0.00549,5436
0.00106,5396
-0.206,9025
0.493,211
-0.169,6807
0.0539,1210
-0.304,10921
0.0239,4706
0.821,57
0.138,2754
0.0494,4208
0.0795,2714
0.05,2313
0.0223,2897
0.214,1239
0.319,2010
-0.22,10025
-0.26,8478
0.11,1430
0.239,1552
0.0928,3355
-0.0185,5412
0.0278,4710
0.0862,3706
-0.0179,6138
0.0588,3616
-0.194,8627
0.275,1142
-0.293,10638
-0.021,5881
-0.103,8801
-0.376,10877
-0.0333,6048
-0.395,10761
-0.208,10394
-0.181,8261
-0.0462,7140
-0.0531,7778
0.259,2627
-0.0642,6130
-0.0236,5647
-0.362,9624
-0.0308,6503
0.587,80
-0.133,7807
0.444,1377
-0.0573,6162
-0.647,10962
0.232,683
0.623,293
-0.214,8642
-0.01,5551
-0.27,9124
-0.182,9423
0.106,1528
0.0249,4269
0.348,674
-0.442,10945
0.139,2277
-0.161,9618
-0.0349,6678
0.843,48
-0.17,8581
-0.161,8041
0.103,3475
-0.0408,5994
-0.191,9731
0.00548,5272
-0.233,9414
0.0478,4073
-0.0876,8165
0.0806,3187
0.239,744
-0.215,10038
-0.167,9535
-0.0954,6908
0.206,801
-0.0626,7197
-0.116,9191
0.212,2173
0.103,2260
0.159,2401
-0.0342,5715
0.0714,3346
-0.181,10133
0.0181,4764
-0.13,8964
-0.0813,8018
-0.223,10115
0.131,2193
0.0593,1003
0.0794,3457
-0.0107,5817
0.154,3255
0.119,3594
-0.154,9798
0.0637,3333
0.113,1914
-0.103,7702
-0.257,9974
0.463,1615
-0.0239,5779
0.0112,4616
0.0209,4447
-0.251,8386
-0.155,8944
-0.422,9598
-0.194,8895
0.538,287
0.0771,2645
0.619,787
-0.127,6489
0.061,4474
0.324,1867
-0.176,10575
0.215,516
0.00887,5142
-0.0835,8003
0.296,1567
0.357,338
-0.0684,7669
-0.209,9771
-0.501,9815
0.434,695
0.24,2250
-0.492,9056
0.194,643
0.176,1538
-0.203,9372
-0.217,9926
-0.0199,5766
0.334,1267
0.0178,4570
0.0427,3416
0.895,1447
-0.119,5697
0.465,2142
0.526,2111
0.135,1722
-0.0753,6622
0.0897,2717
-0.262,10091
-0.0485,6261
0.127,2456
-0.167,9608
0.134,2558
0.423,93
0.000636,5358
-0.295,8401
0.197,3638
-0.118,8623
-0.00445,5211
-0.11,7625
0.426,121
-0.264,10258
0.229,1252
-0.0582,6846
-0.0965,7150
-0.182,9593
0.154,1378
-0.0416,6032
-0.126,8236
-0.192,10404
-0.0117,5792
-0.0315,6370
0.107,2581
-0.00863,5325
-0.0338,6603
0.205,889
-0.171,8355
0.203,1411
-0.218,9886
0.0516,3997
0.183,1982
-0.0957,8014
0.128,1115
-0.0112,5174
0.416,88
0.123,2808
-0.794,10519
0.0795,3095
0.158,1633
0.462,681
0.0661,3188
0.0928,2415
0.23,1380
-0.091,8284
0.0456,3879
0.141,2194
-0.139,9505
-0.36,9933
-0.0582,6141
0.12,730
-0.252,10071
-0.215,8940
-0.116,8289
-0.132,8034
-0.014,5846
-0.0849,7751
0.19,1136
-0.232,9443
-0.0138,5297
0.0895,3289
-0.417,10719
-0.311,10894
0.233,304
-0.201,7953
-0.0741,8514
0.119,3644
-0.4,8773
0.0453,4157
0.0799,3202
-0.162,8793
-0.0546,6627
0.277,1505
0.294,983
-0.0569,6901
0.267,178
0.178,344
0.0636,3614
0.394,175
0.0443,4323
0.0378,4018
-0.151,7896
0.0811,2400
0.166,2878
0.035,4545
-0.11,8893
0.045,3388
-0.0802,8985
-0.0351,6824
-0.217,9253
-0.111,7538
0.191,494
0.0819,1630
0.025,4426
-0.405,10684
-0.303,10041
0.0154,4753
-0.272,10173
0.278,831
0.179,2503
0.101,2988
-0.123,7193
-0.103,8103
0.0473,3630
0.149,1357
-0.849,9602
0.133,1649
-0.105,6576
-0.326,10171
-0.0085,6083
0.0672,4594
0.243,3353
-0.174,4819
-0.115,6466
0.536,1344
-0.0436,5782
-0.201,9103
-0.0802,8096
0.378,159
0.161,1376
0.0386,3178
-0.1,7418
0.462,980
-0.611,10793
-0.111,9003
-0.0586,6963
-0.0886,8367
0.0655,4034
0.0771,3229
-0.158,7935
0.219,498
0.0586,3981
0.1,3146
-0.175,7592
0.12,3157
0.0769,3790
0.415,509
0.054,3517
-0.0436,7038
0.0395,4482
-0.00892,5821
0.269,1417
-0.244,9442
0.209,744
-0.271,9733
-0.265,10209
-0.395,9051
0.259,922
-0.00764,5374
-0.0682,7183
-0.185,9826
0.383,661
0.147,2398
0.0768,3782
-0.135,7477
0.0734,3837
0.04,4149
0.277,900
-0.109,5660
0.0646,4092
-0.174,8701
0.0776,3235
-0.043,6567
-0.0698,7834
-0.175,9398
0.199,3169
-0.291,5553
-0.227,10588
0.129,1139
0.0925,2540
-0.219,9613
0.27,18
0.146,3329
0.293,521
-0.0676,8137
0.00835,4868
0.185,2207
0.0227,4517
0.0149,5050
0.105,3269
0.154,1334
-0.248,9236
-0.284,9457
-0.946,10918
0.209,2484
-0.169,10343
-0.0218,6142
-0.266,10046
0.208,989
0.0172,5015
0.379,1582
0.0941,3167
0.0624,3848
-0.532,11031
-0.0849,7970
-0.68,10801
1.17,688
0.0695,3371
-0.294,11006
-0.158,9435
-0.12,8448
0.129,2567
0.0133,4788
-0.0935,8459
-0.227,10320
0.0612,3607
0.13,3409
0.0675,3718
-0.0544,7330
-0.0991,8654
-0.0526,7755
0.0641,3431
0.488,454
0.116,1331
0.174,1909
0.324,1315
0.0255,4285
0.054,4003
0.113,2930
-0.0822,7141
-0.386,9930
0.0913,3263
-0.0976,7355
0.0966,2944
-0.0465,5710
0.218,2071
-0.129,8326
0.0165,4739
-0.459,10616
-0.207,7623
0.369,656
-0.211,8907
-0.133,8046
0.3,182
0.169,1958
-0.00316,5334
-0.0317,6733
0.219,3103
-0.25,8389
0.348,428
-0.0722,8583
0.42,192
-0.0254,5776
0.0425,4193
-0.213,8330
-0.157,9782
0.028,4469
-0.0494,9713
-0.0259,9261
-0.0421,9749
-0.0237,9322
-0.0183,8723
-0.639,7800
0.229,1285
-0.662,10275
-0.438,7655
-1.12,10039
-0.161,8946
-0.311,10347
0.297,2529
-0.187,8834
0.14,3569
-0.138,9426
-0.0622,6389
-2.21,11006
-0.195,9808
-0.146,7772
-0.0419,7565
-0.0678,6875
0.384,242
-0.336,9951
-0.281,9649
-0.573,10600
-0.489,10881
0.12,2399
-0.154,8275
-0.583,9061
-0.0304,5607
0.175,2357
0.31,3026
0.2,1591
-0.193,10122
-0.504,10947
0.173,1879
0.0389,4180
0.0312,4101
-0.108,7491
0.237,2017
-0.135,8957
-0.12,6442
0.12,2856
0.0704,2955
-0.145,10857
0.0446,4032
0.222,788
0.0642,4206
0.131,3376
-0.0683,6681
0.152,1728
0.212,1824
-0.103,7862
0.228,1358
0.063,3507
-0.0679,8008
0.235,829
0.205,1159
0.0785,2816
-0.175,7958
-0.0262,5423
0.558,37
-0.00343,5109
-0.333,6630
-0.106,8632
-0.338,10251
-0.456,10945
0.0252,4671
-0.0135,5511
-0.0639,6018
0.139,1431
-0.134,7098
-0.199,9997
0.0686,2807
-0.245,10726
-0.115,8720
-0.243,10225
0.0516,4082
0.0419,4490
-0.0585,7842
0.0508,3457
0.386,2081
-0.0539,6208
-0.104,8300
-0.0336,6147
-0.0806,7670
0.107,1958
-0.321,5920
-0.0685,4837
-0.00514,5523
0.877,749
0.136,2106
0.212,241
-0.265,9150
0.156,1474
0.34,1232
-0.0389,7529
-0.143,9725
0.356,47
-0.273,7315
-1.02,10316
-0.576,8351
-0.0611,6218
0.551,102
0.0136,4976
-0.11,6140
-0.0625,7082
-0.0985,8490
-0.0232,6241
-0.0696,7232
-0.25,10148
0.0702,3748
0.0718,3552
-0.124,8592
0.0843,3121
0.0394,4251
-0.208,8788
0.497,14
0.171,2442
0.0329,4455
-0.217,9682
0.0824,3629
-0.679,10875
0.348,1194
-0.0129,5740
0.289,1085
0.0491,3908
0.0704,3483
0.225,1628
0.12,2287
-0.117,7777
-0.0844,8558
0.0452,3809
-0.0745,9530
-0.0364,6268
-0.132,8709
0.394,352
-0.274,11032
-0.0608,6798
-0.0397,7225
0.846,591
-0.165,7978
0.695,187
-0.341,10307
0.082,2125
0.0284,4555
-0.717,10782
-0.0191,5737
-0.0895,7895
0.0607,4369
-0.17,10161
-0.113,7901
0.134,3379
0.211,1553
-0.519,11028
0.0775,4014
-0.0894,9340
0.0153,4870
-0.18,7954
0.15,1717
-0.123,7251
0.426,1220
-0.0969,6949
0.148,3197
0.0547,4058
-0.00244,5379
-0.0818,8534
-0.0835,7006
-0.151,6913
0.149,2821
0.465,972
0.119,1757
0.151,2136
0.227,851
0.316,1723
0.0135,4656
0.387,2622
-0.0965,8893
0.274,608
0.17,3318
0.106,2827
-0.392,10108
0.222,1112
0.0313,4465
-0.0171,6026
-0.0332,7279
0.386,706
0.102,2024
0.181,926
0.126,1554
-0.0967,8297
-0.0668,6997
0.12,2027
-0.476,10750
-0.23,8217
0.484,62
0.103,3068
0.0357,4529
0.0739,3882
-0.0862,7190
-0.0653,6766
-0.191,9122
0.314,206
0.0324,4470
0.309,1314
0.13,3386
0.247,918
0.246,618
0.215,2345
-0.318,10123
-0.298,10942
0.379,490
-0.174,9610
0.00611,4997
-0.158,7984
-0.371,7806
-0.0899,5736
0.3,467
-0.0693,7915
0.116,2368
-0.0355,5756
-0.0649,7375
-0.311,8181
-0.332,11011
0.0761,3704
-0.146,10255
-0.0813,6961
0.0015,5362
0.111,3783
0.363,1143
-0.201,8162
0.148,1869
-0.253,9666
-0.103,7720
-0.254,9541
-0.195,8169
0.116,1895
-0.00898,5478
-0.299,8446
0.127,2779
-0.0617,6556
-0.377,9657
0.0666,3116
-0.0309,6325
0.222,1824
0.0302,4422
-0.152,7885
0.614,345
-0.209,9775
-0.000259,5295
0.326,346
-0.212,8879
-0.0671,7764
-0.13,5733
-0.0195,6285
-0.0926,8306
0.764,38
-0.108,7176
-0.082,6034
0.155,2027
-0.0463,6427
0.315,1500
0.0458,4373
-0.256,10513
0.0334,4059
0.0497,3961
0.0425,3908
0.147,1615
0.127,1725
-0.112,8813
-0.0526,6345
-0.0688,7102
0.115,1425
-0.123,8809
-0.251,10582
-0.268,10427
0.00268,5309
-0.17,8128
-0.031,6243
0.201,524
0.0488,4296
-0.244,9719
0.0366,4149
-0.00382,5228
-0.223,10141
0.072,3343
-0.213,9231
0.146,1881
-0.112,4944
0.341,334
0.155,2105
0.23,1140
-0.0983,9010
0.0613,4404
-0.105,8378
-0.113,7677
-0.0711,7638
0.138,3345
-0.0348,5713
0.352,449
-0.306,10968
-0.0825,8706
0.219,744
-0.12,8195
-0.264,9227
0.268,776
0.0454,3879
-0.0366,6795
-0.196,10566
0.146,1676
-0.0231,5486
0.274,2459
0.00909,5036
0.0456,3663
0.209,1624
0.233,515
-0.29,9294
0.0313,4565
0.00383,4968
-0.174,9495
0.135,2779
-0.234,9680
0.0962,3943
0.0364,4573
-0.00864,5811
-0.0747,8115
0.201,2055
-0.167,9323
-0.108,8004
-0.296,9270
-0.045,6807
0.216,284
-0.299,10075
-0.112,7787
0.119,3110
-0.325,8656
0.259,1044
-0.135,8929
-0.0146,6255
0.0942,3461
0.0751,2776
0.051,4388
-0.0281,6889
-0.195,9074
0.497,163
0.176,3148
0.0278,4248
-0.0358,6201
0.15,2059
0.19,551
0.0107,5070
-0.0595,7444
0.185,3178
0.109,3272
-0.14,9889
0.205,597
0.0375,4578
-0.569,10988
-0.243,9653
-0.0338,6233
-0.261,10915
0.275,336
0.0762,4027
-0.182,9432
-0.163,9341
0.147,3386
-0.0783,6818
0.125,2914
0.216,1130
-0.283,10626
-0.142,10423
0.154,2461
-0.124,10150
-0.124,7572
-0.00848,5625
0.248,793
-1.52,10858
-0.0454,5841
0.0401,3737
-0.0585,7395
-0.0711,7603
-0.0583,6319
0.456,448
0.737,187
0.0456,4009
0.00826,5156
-0.0255,5623
-0.0256,5794
0.0819,3676
0.19,2055
-0.134,8428
-0.0763,7812
-0.133,7791
0.0419,4469
0.0633,3866
0.0997,2058
-0.221,9346
-0.322,10522
0.0532,4115
0.104,2874
-0.212,10059
-0.0922,9648
0.181,1300
0.301,659
-0.0193,5917
0.164,2964
-0.224,10622
-0.198,10543
0.0757,2706
-0.0851,8247
-0.493,10333
-0.141,8652
0.301,232
0.000383,5274
-0.327,10548
0.535,1002
0.132,2819
-0.0661,6881
-0.296,8328
0.0877,2918
-0.369,10933
-0.147,9187
-0.0203,5992
0.295,805
-0.089,7115
-0.148,7746
-0.0645,7919
0.353,95
0.171,1968
0.491,709
-0.299,8752
0.163,1737
0.181,246
0.233,746
-0.211,10133
0.158,1744
0.0157,5013
-0.0933,8519
0.0447,3752
-0.0735,7518
-0.242,8698
-0.625,9773
-0.265,7855
-0.169,8736
-0.000995,5317
0.305,962
-0.00264,5467
-0.142,7689
0.0732,3829
-0.226,9276
0.168,1842
-0.00804,5585
-0.34,9747
0.151,1195
0.876,57
-0.196,10514
0.138,871
-0.102,8604
0.0648,4048
-0.153,9003
0.365,1213
-0.122,10330
-0.0351,6421
-0.294,10460
-0.0654,7127
0.128,2082
-0.231,8893
0.0233,4837
-0.102,6189
-0.515,11000
0.289,1181
-0.00863,5373
1.96,148
0.134,2468
-0.383,10222
-0.139,8817
0.0893,3032
-0.285,9965
-0.196,7308
0.151,1568
-0.118,8029
-0.311,10591
0.0264,4808
0.0173,4726
-0.137,8222
0.0785,1870
0.0695,3313
-0.417,10827
0.0252,4587
0.353,1260
0.0625,3968
0.0253,3967
-0.0153,5450
-0.228,10064
0.199,2298
0.000509,5365
0.0768,2706
-0.108,8426
0.136,2711
-0.109,8706
0.0164,4795
0.0618,3379
-0.00181,5320
0.233,198
-0.0848,7799
0.0922,3731
-0.16,7952
0.133,1263
-0.0982,7968
0.261,1074
0.162,1957
0.352,1304
0.052,4519
0.511,378
-0.147,9603
-0.13,9131
0.0721,3402
0.046,3890
-0.495,10017
-0.0132,5777
0.0272,4218
0.0426,4025
0.0443,4451
-0.171,10299
-0.567,10801
0.0679,3733
-0.0626,8283
0.146,1109
0.259,1011
0.127,2387
-0.249,10068
-0.233,8952
-0.0795,7280
-0.00495,5614
-0.173,8676
-0.0207,5940
-0.125,7652
-0.12,7535
0.0941,3030
0.0378,3754
-0.0177,5919
-0.258,10655
-0.0299,5895
-0.0546,6555
0.0387,3795
0.136,1515
0.218,1688
-0.14,8796
-0.0513,6508
0.119,2947
-0.0308,6470
0.136,2081
-0.0266,5856
-0.0897,8054
-0.0388,6288
-0.0344,5824
0.0677,4028
-0.11,8565
0.249,678
-0.169,6956
0.312,183
0.162,2017
-0.0346,6718
-0.123,4936
0.265,2339
0.6,1528
-0.037,4852
0.349,146
0.373,443
0.151,3346
-0.153,8837
-0.0137,5501
-0.121,7565
-0.184,9489
0.0379,3858
0.0277,4728
0.196,2346
0.216,1263
0.148,3071
-0.148,9668
0.0448,3386
0.554,93
-0.0358,6298
0.586,226
-0.125,9908
0.0185,5063
-0.0872,7984
-0.144,7226
0.0933,2428
-0.246,9664
-0.1,7928
0.0678,2508
-0.127,8799
0.0788,3486
-0.159,9383
-0.432,10084
0.486,1319
-0.0129,5793
0.194,198
0.00224,5089
0.0698,3556
-0.473,10332
-0.842,10429
-0.109,9149
0.0445,4161
-0.0985,7572
0.198,612
-0.137,8407
-0.146,8667
0.159,1293
0.0167,4808
-0.0716,8467
-0.0435,6742
0.147,1931
-0.0585,7391
0.0224,3894
0.0531,4026
-0.0595,6126
-0.144,10184
-0.00582,5456
0.216,728
-0.0505,7219
0.0135,4869
-0.265,10166
-0.06,6365
-0.25,10790
0.101,3978
0.107,1781
-0.274,10652
0.0176,3542
0.5,592
-0.0219,9140
0.274,1592
-0.151,9386
-0.667,10704
-0.291,9946
0.11,2152
0.271,1011
0.105,3945
-0.157,8865
-0.369,9974
-0.0557,6217
-0.155,10028
0.0525,4354
-0.127,7424
0.0158,5183
0.159,1839
0.134,2669
-0.0687,7774
0.125,1909
-0.396,9861
-0.311,8704
-0.059,6149
-0.14,8698
0.0512,3591
-0.0627,7347
0.014,5118
-0.0158,5592
-0.173,7652
0.0649,3894
0.0749,1728
0.0258,4491
0.0931,2735
0.0965,3101
-0.218,10015
0.387,1220
-0.00721,5610
-0.00496,5696
0.201,1162
0.0789,3446
0.0359,4395
0.135,3459
-0.49,10889
0.137,1739
-0.212,9573
-0.156,8766
-0.305,10672
-0.113,6841
-0.0897,8507
-0.0396,6730
0.178,2215
-0.149,7875
0.526,360
-0.198,6955
-0.0844,7416
0.202,2362
0.0665,3640
0.112,2431
0.166,3351
0.00121,5127
-0.0301,6250
0.246,813
0.0391,4502
0.0425,4306
0.26,1316
-0.0611,5881
0.0144,4840
0.00331,5016
0.456,681
-0.219,9382
-0.15,8114
-0.0981,6649
0.0344,4190
0.134,1969
0.205,1182
-0.37,10932
0.109,2959
0.187,1583
-0.0685,9144
0.0754,1456
0.17,1210
-0.156,9453
0.358,2234
-0.0314,6371
0.119,1480
0.391,521
-0.158,8197
-0.233,8434
0.451,1112
-0.17,8968
0.384,429
0.0462,3925
0.117,2762
-0.272,10950
-0.0144,5213
0.0584,3858
-0.091,7562
-0.0922,8502
0.248,1551
-0.161,8641
0.185,1457
0.159,1755
0.158,272
-0.0247,6331
0.567,537
-0.407,9660
0.264,2525
0.206,2104
0.0504,4459
0.0272,4433
0.195,909
-0.0195,6149
-0.0342,5951
-0.42,10966
-0.14,9045
-0.138,7836
-0.254,8424
-0.137,6626
0.613,1399
-0.545,11016
0.161,1081
-0.266,9990
0.158,2437
0.034,3558
0.243,2631
0.857,545
-0.0389,7021
0.15,1894
-0.164,9966
-0.262,7983
-0.681,10264
0.12,3030
-0.0975,8413
-0.101,8562
0.292,1700
-0.649,10660
0.115,1536
-0.122,9406
-0.128,8532
0.0651,3446
0.00127,5350
0.0254,4527
-0.0313,6023
-0.174,9067
-0.209,10087
-0.0652,7144
0.0802,3458
-0.108,8522
0.104,3636
0.386,2040
-0.0191,5712
-0.0802,6887
0.125,2734
-0.119,8673
-0.36,9883
-0.0264,6127
0.158,506
0.227,68
-0.526,10659
0.0512,4672
0.375,1707
0.533,571
0.0638,3073
-0.0347,6709
-0.132,8581
-0.28,9703
-0.155,8674
0.0385,4685
0.159,926
0.107,2809
-0.209,8796
0.0817,3477
-0.0249,5961
-0.537,10976
-0.108,7804
0.0432,4047
0.0983,2897
-0.503,10847
-0.242,10516
-0.0801,6928
0.367,148
0.0389,3707
-0.0872,7751
-0.336,10147
0.649,765
-0.451,9372
0.24,854
-0.171,9908
-0.117,7258
0.36,1366
0.0622,3778
-0.0521,7130
0.111,1973
0.0742,2601
-0.0769,8642
-0.215,9418
0.0178,4720
-0.155,8550
0.116,2003
-0.0513,7039
0.353,190
0.0807,3667
-0.165,10713
0.0169,5103
0.136,831
0.228,676
-0.132,7617
0.0567,4026
0.0166,4938
-0.255,9290
0.00697,5446
0.0457,4848
0.0548,3782
0.0641,3913
-0.116,7109
-0.133,7469
0.0846,2740
-0.185,10410
-0.0171,5900
-0.0207,5953
-0.0673,6317
-0.0163,5852
-0.051,7938
0.12,3289
0.0358,4521
-0.00523,5704
-0.0548,6583
-0.0517,6684
-0.294,10158
0.0208,4513
0.0929,3456
-0.00335,5266
-0.0495,6782
-0.0481,6724
-0.11,7467
-0.158,8920
-0.194,9020
0.339,1235
0.457,1172
-0.0508,7056
-0.303,10448
0.475,157
0.0793,3305
0.194,1852
-0.105,7036
0.0875,1934
0.0178,4807
0.785,153
0.0407,3717
-0.49,10576
-0.12,6629
0.141,1924
-0.106,7788
-0.119,10064
0.0632,3761
-0.143,9356
0.262,543
-0.00201,5421
-0.0248,6507
0.276,1201
0.0393,4558
0.089,3402
0.0556,4328
-0.0719,7198
-0.101,8999
-0.0728,6773
0.00376,4992
-0.117,7815
0.222,2071
0.227,1580
-0.132,9339
0.157,3573
-0.0394,6769
0.113,2580
-0.23,9578
0.0487,3531
0.168,966
0.205,452
-0.161,8172
0.079,3958
-0.272,10197
-0.00101,5326
-0.115,8314
0.0359,3678
0.591,399
-0.0177,5601
-0.0104,5259
0.253,798
0.158,1174
0.429,2188
-0.431,10527
-0.259,9307
-0.883,9087
0.188,1511
-0.289,7956
0.423,145
-0.229,8485
0.101,2649
0.0499,3901
-0.0509,7222
-0.081,7997
0.272,2291
0.12,2741
-0.0179,5845
0.142,838
-0.105,10024
0.0681,3174
-0.0839,6490
0.0846,3822
0.281,1738
-0.151,8853
-0.0215,6700
0.115,2013
-0.283,10595
-0.746,10890
0.299,794
0.243,2073
0.0379,4330
0.0722,2718
-0.269,9796
-0.197,9313
0.0763,3755
0.022,4785
-0.0328,6308
0.197,2362
0.363,2585
0.278,873
-0.0349,6330
-0.0729,7293
0.116,2835
0.2,1686
-0.0964,6507
0.0502,4244
0.0227,4806
-0.137,9460
-0.0727,8961
0.141,2650
0.4,326
0.147,2635
-0.214,9001
-0.0663,7752
0.201,963
0.372,1922
-0.029,5887
-0.179,8167
-0.848,10904
-0.0932,8741
-0.0723,6938
-0.323,10643
0.477,417
-0.0993,7161
-0.795,10673
0.142,1526
0.267,723
-0.642,9053
0.11,4342
-0.0811,8028
-0.261,6721
0.0809,2056
0.191,765
0.558,1910
-0.302,8810
-0.0168,5757
-0.138,7845
-0.104,7324
0.0426,3854
0.0226,4732
-0.349,10573
0.015,4814
-0.205,9403
0.0168,4815
-0.0895,7446
0.11,3403
0.00441,5099
-0.0807,6948
0.134,1186
-0.126,8538
-0.0714,6756
0.0126,5007
-0.239,10314
-0.105,7453
-0.0543,7478
0.203,2555
-0.0588,6095
-0.0721,7028
0.207,2459
-0.115,7326
0.109,2512
0.0272,4310
-0.107,8469
0.0558,4274
-0.0101,5613
-0.222,10131
0.0632,1362
0.025,3950
0.175,2763
-0.219,9848
-0.0312,6593
0.00795,5169
0.126,1502
-0.0326,6455
0.702,895
0.139,3514
0.0728,3965
-0.158,8929
-0.0724,6428
-0.168,8490
0.000168,5274
-0.123,7855
0.0694,3791
0.149,2176
0.00942,5086
-0.287,10359
-0.356,10157
-0.124,6840
-0.165,8765
0.181,2201
0.258,322
0.0439,4317
-0.0256,6421
-0.0732,7492
-0.36,10534
-0.184,8769
0.55,1
-0.158,9621
-0.146,9323
-0.191,9339
0.212,2869
-0.0873,8971
-0.125,8591
-0.027,6267
0.274,992
-0.339,9717
0.11,2545
0.0698,4106
-0.02,5784
-0.254,10088
0.194,1229
-0.139,9089
-0.0899,8895
0.387,155
-0.109,8440
0.162,1609
0.212,1605
0.204,782
0.103,3079
0.199,1257
0.0225,4195
-0.0975,8906
-0.0684,6729
-0.164,8134
-0.178,10752
0.0143,4934
-0.233,10289
0.215,1335
-0.0801,7335
0.0187,4594
-0.453,10843
-0.127,6942
-0.111,7961
0.00845,5161
0.147,2368
-0.218,7702
0.155,2867
-0.000692,5358
-0.0143,5435
-0.128,8654
0.123,2765
0.371,2179
-0.18,10735
0.158,3067
0.0312,4632
0.0729,3000
0.617,969
-0.0427,6509
-0.171,9402
-0.129,6604
-0.0961,8722
0.853,35
0.362,238
-0.0973,7534
-0.06,6758
-0.208,8403
-0.164,10613
-0.0832,8065
-0.218,8817
-0.103,6910
-0.116,7785
0.308,93
-0.093,9302
-0.166,10728
0.183,910
0.287,1070
-0.124,9124
-0.109,7685
-0.12,9126
-0.265,9938
0.01,5349
-0.0445,5894
0.182,2616
0.238,350
-0.236,10299
-0.211,9386
-0.0626,5928
0.306,104
-0.148,7625
0.0975,3329
0.0233,4333
-0.295,9872
0.0582,4022
0.0302,4400
-0.109,8742
0.0258,4534
-0.0996,9245
0.0818,3577
-0.176,8566
0.241,2088
-0.242,9092
0.243,2812
0.0315,4335
0.0209,4421
0.0585,2992
-0.357,10481
0.0606,3839
-0.118,7378
-0.0101,5595
-0.0696,7312
0.116,3492
-0.234,10168
0.0345,4898
-0.247,8726
0.191,806
-0.195,10226
-0.406,10783
0.0489,4064
0.123,3415
0.222,2726
0.0505,3255
0.333,905
-0.27,10158
-0.104,8838
-0.0763,6759
-0.0225,5191
-0.0112,5626
0.189,2194
-0.118,8547
-0.333,10655
-0.179,8584
0.0141,4860
0.119,2047
0.325,1186
0.153,2631
0.21,662
-0.289,8563
-0.0638,6383
0.0578,2691
0.234,416
0.0269,4244
0.0583,3347
0.164,1868
0.188,1065
-0.0489,6253
0.0528,3144
0.0356,4424
0.439,361
0.272,1563
0.166,1442
-0.266,10547
-0.105,7660
0.315,1902
0.159,2328
0.0653,3867
-0.189,7189
-0.0642,7986
0.0775,3014
-0.127,9667
-0.0893,8493
0.163,1684
0.136,2637
-0.0202,5529
-0.176,7795
0.162,1427
-0.16,8149
-0.192,8160
-0.012,5420
-0.0287,5669
0.0445,2265
0.165,2420
0.216,1748
-0.0835,7028
0.0486,4294
0.18,1568
-0.127,7742
0.0757,3685
-0.0503,6235
-0.205,10056
0.0903,2590
0.156,1509
-0.211,10643
0.0523,4202
0.0616,3539
0.269,2055
-0.219,8984
0.026,4331
0.21,295
0.528,364
-0.181,10391
-0.0141,5759
0.0359,3542
0.00271,5038
-0.0267,6482
0.176,1701
0.138,2157
1.08,44
0.751,136
-0.0833,6553
0.0723,3927
-0.17,9736
0.351,720
1.74,251
0.0562,4186
0.118,2875
-0.115,8688
0.334,652
-0.0452,7208
-0.141,9622
0.214,2570
0.00661,4936
0.0676,1839
0.0798,3758
0.549,350
0.125,791
1.14,530
0.196,397
0.0493,3457
-0.0152,5613
-0.177,9087
0.432,1122
-0.523,10835
0.122,2074
-0.0204,5811
-0.104,8058
-0.0912,7647
0.0904,4244
0.327,714
0.198,974
-0.0672,7916
-0.242,10281
0.0972,3651
-0.455,10024
-0.0245,5884
-0.0783,8640
0.199,1126
0.00827,5147
0.059,4227
-0.383,9878
-0.0424,6356
-0.0463,7312
-0.0698,8884
0.0246,4909
-0.417,9879
0.185,2211
0.068,4097
0.536,186
-0.0369,5948
0.183,2137
0.426,102
0.246,2103
-0.142,7839
0.0199,4532
0.184,2613
-0.164,8209
0.000408,5452
-0.254,8413
-0.0345,5444
0.214,242
-0.442,11007
0.259,1202
-0.0949,7224
-0.232,10045
0.296,1602
0.0646,3517
0.219,1302
0.463,92
-0.171,7488
1.61,885
0.552,342
0.0284,4583
0.201,1886
0.127,2484
0.281,712
-0.00541,5245
-0.0676,7116
-0.247,10231
-0.144,9426
0.0376,4186
1.37,207
0.189,2179
0.0447,4376
-0.169,9194
0.119,936
0.00017,5090
0.162,2678
-0.124,9482
0.14,2944
0.0723,2168
0.0268,4233
0.421,1397
0.323,517
-0.404,10919
0.0784,3782
-0.0576,6731
-0.0868,7447
0.352,805
-0.202,8414
-0.315,9499
0.59,451
-0.163,9249
0.073,2681
-0.329,9735
-0.274,10042
-0.298,9899
2.22,42
-0.0334,6767
-0.104,8910
0.00294,4945
0.309,155
0.0713,3809
0.169,2432
0.0198,4796
-0.0823,8137
-0.0477,6467
0.14,1905
0.629,363
-0.378,10995
0.0131,4786
-0.0873,7994
0.123,3035
-0.223,8938
0.295,1626
-0.017,5788
0.0708,3060
-0.123,10106
-0.156,8336
-0.184,8194
0.344,2540
-0.883,10482
0.0732,3385
0.0528,3435
-0.178,8093
0.0101,5162
-0.166,9470
-0.116,6212
0.01,5126
0.00973,4885
-0.0665,7005
-0.311,10037
-0.0927,7857
0.384,1168
-0.0672,8175
-0.293,10574
-0.31,8470
0.0388,4224
-0.272,10285
0.224,1841
0.217,668
-0.0797,7679
-0.0165,5897
-0.0628,6506
0.197,2710
0.0999,3096
-0.18,10784
0.827,662
0.23,278
0.015,5213
-0.198,8039
-0.567,10840
0.122,2187
-0.0306,6675
0.103,3578
-0.244,10101
-0.107,7447
0.694,1620
-0.131,7586
0.0797,3828
-0.117,6613
0.0366,4517
0.211,2127
-0.159,9666
0.202,1099
0.345,709
-0.0263,6104
-0.458,11020
-0.107,7875
-0.0114,5157
0.16,1647
0.298,1966
-0.00112,5364
-0.192,9172
0.00139,5195
0.0347,4313
-0.12,9088
0.164,2614
-0.164,9029
0.00412,4877
-0.0475,8294
0.157,2234
0.312,192
0.225,1581
0.0663,3829
-0.146,7977
-0.0308,6326
-0.0156,5792
-0.0146,5265
0.422,294
0.191,2196
-0.0952,7540
-0.0484,6963
0.15,2235
-0.238,11005
-0.19,8580
-0.305,10499
-0.0215,5829
0.0628,3447
0.0795,2677
-0.0732,8128
-0.242,9596
-0.11,8013
0.481,708
-0.0368,6434
-0.128,8742
0.289,233
0.0118,4995
0.13,2441
-0.21,8400
0.0203,4647
0.0158,4617
0.0351,4121
-0.0506,7087
-0.0527,6829
0.233,2983
-0.541,10578
0.0499,3336
0.0475,3400
-0.06,6840
-0.000469,5151
-0.0321,5139
0.0167,4714
0.151,1633
0.0709,2704
0.0676,3869
-0.288,10013
0.0365,4085
0.032,4028
-0.0461,7413
-0.0862,7947
0.199,1128
-0.272,10864
0.0239,4545
-0.0623,7062
-0.0628,6803
-0.132,8997
0.0978,3667
-0.245,10229
0.127,3299
-0.512,10885
0.0322,4588
-0.0707,6700
0.203,1509
-0.28,8231
0.482,1978
0.000544,5311
0.0202,4776
0.0899,3716
0.0801,4390
-0.0349,7018
-0.0882,7963
0.144,1997
-0.138,9687
0.101,2244
-0.0916,7513
0.181,1294
-0.358,10604
0.395,157
-0.0515,6672
0.194,1661
0.302,705
-0.0924,7413
0.533,317
-0.0845,6628
0.0644,4170
0.0491,4103
-0.00595,5543
0.13,3793
-0.053,5635
-0.0257,5931
-0.166,9701
-0.167,9816
0.0294,4665
0.0334,4177
-0.148,7439
0.0457,3451
-0.174,9745
0.0424,3341
0.198,2630
-0.145,7982
-0.0125,6032
-0.143,7951
0.229,505
-0.223,9955
0.424,477
-0.249,10266
-0.183,7644
-0.179,7263
-0.0518,6864
-0.0591,7468
0.144,1759
-0.105,9750
0.268,168
-0.265,10840
-0.102,6567
-0.13,8774
-0.138,9093
0.0176,4825
0.0549,4122
-0.355,10817
-0.0475,5833
-0.0375,6056
-0.0355,5902
0.984,1015
0.00111,5423
0.25,992
0.465,249
0.0382,4193
0.0179,4764
-0.055,6776
0.0365,4469
-0.0337,6152
-0.116,7711
-0.0368,5926
0.0372,4179
0.203,1441
0.0158,4687
0.221,2028
0.114,2429
-0.0644,7987
-0.0779,7858
0.0196,4661
0.313,532
0.23,2209
0.0978,3542
-0.0332,6349
0.202,627
-0.239,10843
-0.00624,4817
-0.242,9742
0.0344,4573
0.24,466
0.157,1634
-0.104,7365
-0.0967,7471
0.252,764
-0.237,9026
0.323,100
-0.0822,7868
-0.0793,8965
-0.0683,7800
-0.345,10672
-0.257,9883
0.61,132
-0.337,10556
-0.0612,7465
0.037,4371
-0.233,10578
-0.0953,8338
-0.268,9420
-0.148,10559
0.146,1637
0.284,1996
0.0552,4584
0.0418,4471
-0.133,9945
0.124,490
-0.00779,5886
0.148,2575
0.301,1564
-0.0623,7255
0.375,570
0.346,840
0.0355,4412
-0.171,6258
-0.194,7064
-0.669,10163
-0.086,6256
-0.327,7256
-0.282,10857
0.197,2131
-0.292,10265
0.827,1750
-0.536,10636
-0.0951,8271
0.0318,3796
-0.3,10333
-0.0201,5685
0.137,1912
0.271,1323
-0.176,9840
0.257,422
-0.348,9950
0.268,995
0.406,1431
-0.0873,8379
0.481,49
0.0068,5148
-0.26,9153
0.553,837
-0.0986,7020
0.0526,3157
0.206,2084
0.0576,3232
0.22,3294
0.141,2616
-0.177,8725
-0.266,10469
-0.0347,6411
-0.00298,5228
0.24,944
0.096,2839
-0.168,7738
-0.611,10169
0.168,1868
-0.0478,8493
0.00856,4959
0.0615,4224
-0.0731,6269
0.254,2039
-0.0325,6654
-0.0193,5482
0.32,975
0.111,3572
-0.228,10211
0.533,360
-0.275,10343
-0.0681,8058
0.267,853
-0.252,9679
-0.0728,7747
0.276,2456
0.0112,5109
0.138,1390
0.209,2160
-0.00704,5358
-0.0386,6210
-0.247,10008
0.0542,4181
-0.35,10391
0.195,1390
-0.0147,5427
-0.243,9502
-0.335,8543
-0.104,6864
-0.179,10026
0.0403,4183
-0.00023,5343
0.0802,3731
0.385,760
0.0697,3084
-0.0731,8061
0.235,1574
0.00799,5326
-0.00996,5174
-0.241,9324
-0.0656,7474
-0.181,10700
-0.351,10916
-0.335,9525
0.146,2845
0.0628,3768
-0.187,8714
0.204,2614
0.0769,3061
-0.309,10404
0.184,3297
0.01,4882
0.0377,3779
-0.241,10591
-0.227,9839
-0.204,10014
-0.0965,7461
0.058,4016
-0.211,9642
0.0493,3558
-0.018,5427
-0.0556,6560
0.0663,4163
-0.322,10332
-0.121,9769
-0.0542,7504
0.0371,4796
-0.157,8457
-0.213,7095
0.116,3360
0.024,4525
-0.0828,7950
-0.384,10553
0.0114,5046
0.11,3469
0.309,882
0.0177,4364
0.173,814
0.0853,3389
-0.0612,6808
0.167,1824
0.19,1698
-0.145,8700
-0.0455,6918
0.258,361
-0.6,10160
-0.54,10726
0.0925,3573
-0.126,9157
0.0184,4625
-0.019,6106
0.201,1719
-0.0256,5871
0.0626,3798
0.0076,4997
-0.0021,5279
0.0519,4175
0.558,43
0.276,790
0.0145,4718
-0.0712,8889
0.129,2681
0.0226,4741
-0.259,9590
0.0485,4653
0.0233,4893
-0.0906,7911
0.165,1754
-0.157,8813
-0.298,10647
0.126,2977
-0.0368,6153
-0.00467,5581
-0.107,9287
-0.0572,6936
-0.0648,6506
-0.108,7369
-0.102,7672
-0.0797,9300
0.221,816
-0.113,8304
0.107,2861
0.0284,4375
0.0252,4837
0.168,2483
-0.0234,6603
-0.0742,7395
0.0735,3640
0.381,130
-0.211,8635
-0.0297,6531
-0.0857,8530
-0.138,8615
-0.32,10647
-0.488,10480
0.0467,4384
-0.139,9144
-0.133,9578
0.276,232
0.103,2786
-0.201,9354
-0.108,7604
-0.136,9951
0.169,636
-0.0634,7021
0.186,2461
0.186,2182
0.017,4712
0.0662,3714
0.0951,3263
0.0866,3715
0.394,1584
-0.116,8284
0.551,1516
0.136,2921
0.0601,3609
0.0607,4026
0.25,1056
-0.269,9151
0.2,1826
-0.0928,8257
0.0268,4249
-0.102,7782
0.279,820
0.0137,4839
-0.242,6526
-0.0357,6091
0.0721,3275
0.254,2663
-0.27,9032
-0.205,9474
0.197,973
0.0457,4383
0.211,1233
-0.00926,5770
0.0869,3459
-0.282,10393
0.42,933
-0.18,10049
-0.0578,7298
0.441,531
-0.0254,6135
0.313,1655
-0.518,10761
0.0482,3865
0.0712,1667
-0.269,9024
-0.0188,5654
0.2,586
-0.072,8253
-0.128,9915
0.0307,4565
-0.0348,6266
0.391,235
-0.174,7888
-0.0012,5555
-0.0955,9388
0.148,1641
0.161,2839
0.45,1169
-0.366,10430
-0.328,9249
0.011,4967
-0.103,8447
0.028,4924
0.691,106
0.294,1310
0.208,796
0.0715,2509
-0.071,8149
0.208,2161
-0.171,9378
0.318,1621
-0.425,10824
-0.206,9068
0.00923,5341
0.469,1021
0.106,2759
-0.0603,5360
-0.181,10371
0.0131,4900
0.0155,4526
0.102,3195
0.284,1435
-0.117,7761
0.197,880
-0.102,10015
-0.0387,6733
-0.173,8067
-0.665,9553
-0.102,6287
-0.14,7964
0.0712,3538
0.09,2625
-0.000617,5198
-0.0919,6592
-0.282,10617
0.23,2303
-0.168,10614
-0.0616,6589
-0.211,9775
-0.227,9601
0.451,469
0.0584,3632
-0.685,10491
-0.14,9200
0.399,1409
0.0576,3747
0.188,2364
-0.266,9352
0.00399,5028
-0.177,9479
0.102,3803
-0.305,8070
0.405,769
0.238,2584
0.265,236
0.0184,4693
-0.122,5551
-0.232,5226
0.0493,4356
0.168,3451
-0.884,10374
0.21,644
-0.381,10707
-0.176,8614
0.297,1730
0.134,3029
0.0295,4386
0.188,1641
-1.21,10700
-0.519,10180
-0.645,10230
-0.0751,6415
0.00654,5249
-0.0507,7316
-0.306,6796
-0.41,8051
-0.0894,6431
-0.242,9221
-0.0664,6421
0.232,736
0.251,2141
-0.203,8369
-0.131,9807
0.00299,5356
-0.32,10747
-0.064,6355
1.8,420
0.105,3931
0.00152,5303
0.252,2041
0.114,2636
0.0742,3478
-0.656,10667
0.0225,5044
0.187,1858
0.486,1659
-0.293,10337
0.214,988
-0.214,7946
-0.0792,7025
0.0344,4471
-0.375,8671
-0.00453,5623
-0.0266,6003
0.175,2290
0.156,1140
0.625,259
-0.0479,6102
0.424,23
-0.0192,6060
-0.342,10460
-0.172,8325
0.0657,3703
-0.396,10728
-0.0552,6606
-0.0955,6636
-0.0272,6241
0.113,1795
0.0193,4377
-0.154,8080
-0.0205,5926
0.0856,3379
0.179,1212
0.0481,3262
-0.258,10587
-0.0988,5824
-0.469,9153
-0.432,9841
0.0067,4918
-0.0148,5430
0.398,93
0.284,848
0.305,1529
-0.139,8941
0.124,2534
0.136,821
-0.269,10148
-0.199,9253
-0.04,6932
0.775,103
-0.149,9583
0.00243,5128
-0.0926,6392
-0.155,9006
0.144,2429
-0.172,8036
0.15,1074
-0.12,10332
-0.269,10733
-0.00319,5439
0.191,810
0.221,1094
0.261,593
-0.0771,7082
-0.0941,9183
0.213,1729
-0.192,10229
-0.0837,6537
-0.0694,9092
0.218,1191
-0.203,10055
-0.23,10525
-0.402,10417
-0.0102,5589
-0.128,10283
-0.0131,6990
-0.0413,6608
0.354,734
-0.059,7477
0.0548,3685
-0.172,9145
0.135,2094
-0.227,9871
0.0817,4081
0.147,2328
0.155,2239
-0.0491,6906
-0.194,8094
0.0314,4263
-0.301,9062
-0.464,10824
-0.0584,6389
-0.0796,8879
-0.0606,7410
-0.0545,6466
0.186,1939
0.272,1157
-0.572,10995
0.126,2585
0.156,1590
-0.114,9601
-0.131,8480
-0.162,8965
-0.0157,5939
-0.0899,7051
0.116,2915
0.0744,3619
-0.342,9992
-0.384,10484
-0.129,6104
-0.0663,8035
-0.0783,8275
0.0324,4201
-0.0154,5710
0.0561,4406
-0.13,9932
0.0241,4295
-0.181,9328
-0.125,7696
0.156,3462
0.148,2366
0.0142,4936
0.166,2259
-0.056,7452
-0.0395,6435
0.0534,4211
-0.0574,5801
-0.425,9537
0.169,1056
0.112,1276
0.322,2000
-0.216,7983
-0.7,10639
0.242,2949
0.433,292
0.00998,5045
-0.0746,6703
0.388,164
0.635,293
0.0435,3543
0.0339,4124
0.246,539
0.228,971
-0.0502,7315
-0.000639,4810
-0.00355,5118
0.0405,3110
0.26,1333
-0.107,9296
-0.0408,6513
-0.0572,6307
-0.00631,5334
-0.176,10715
-0.227,10320
0.0467,4226
0.22,1540
0.0144,4745
-0.00476,5532
0.0798,2839
-0.0974,9278
0.31,819
0.74,86
0.0709,4271
-0.151,8424
0.0569,2969
-0.11,6949
0.0559,4022
-0.137,9964
-0.298,9617
0.706,1200
-0.178,10429
-0.0266,6642
0.289,1428
0.0715,3882
0.105,1458
0.0094,5055
0.0207,4482
-0.088,8037
-0.0501,5436
0.0235,5012
0.0279,4865
-0.152,8730
0.253,1513
-0.0629,8746
-0.155,9169
-0.0465,6780
-0.225,9976
-0.336,10083
0.27,860
-0.152,9957
0.0577,4047
-0.0336,6270
0.000131,5131
0.624,129
-0.21,10682
-0.0856,7982
0.176,1545
0.333,1090
-0.166,8022
-0.0168,5949
-0.0294,6302
0.0755,4016
-0.0944,6965
0.0129,4836
0.018,4783
-0.499,10803
-0.0602,5919
-0.0304,6185
-0.155,8103
-0.103,8132
-0.285,9287
0.15,2153
-0.217,9631
-0.231,9697
0.167,1796
0.065,4115
-0.37,9351
0.235,2202
-0.0824,8532
-0.115,8599
-0.128,8031
-0.053,6201
-0.701,9871
-0.0125,5760
-0.311,10953
0.279,559
0.292,796
0.119,3112
-0.0589,7243
-0.138,7697
-0.0934,8504
0.0941,3360
-0.31,9420
-0.0469,6447
-0.0399,7082
-0.195,9963
0.14,2571
-0.197,10850
0.0195,4754
-0.0708,7566
0.381,481
-0.193,9238
0.0957,1971
-0.135,7507
-0.193,8889
-0.0421,6008
-0.242,9632
-0.0993,6417
-0.517,10991
0.262,16
0.291,922
0.107,2502
-0.095,7570
-0.463,11021
0.413,269
0.0303,3681
-1.08,10866
0.364,1423
-0.207,6201
-0.226,9286
0.2,2311
-0.832,9809
0.352,333
0.525,167
0.26,878
-0.0106,5660
-0.00371,5462
-0.147,7999
-0.0129,5790
0.0784,3652
-0.13,8129
-0.142,10222
-0.168,9292
0.113,3303
-0.231,8509
0.0408,4433
0.204,1018
0.548,187
-0.0869,7403
0.0249,4385
0.0915,2996
-0.081,6963
-0.0371,7143
0.00723,5105
0.0207,4495
0.299,19
-0.0436,6431
0.132,3956
-0.232,10761
0.132,2112
-0.217,9197
-0.0461,6485
-0.194,8399
-0.334,9640
0.384,495
-0.0173,6289
-0.0451,6571
0.534,470
0.408,202
0.0875,3100
-0.263,10322
0.2,2559
0.0379,4711
-0.0186,5462
0.189,1347
0.111,1214
0.0664,2999
0.296,1449
0.335,1487
0.287,1532
-0.108,6742
0.0866,2807
-0.153,8032
-0.0731,7519
0.0379,4663
0.145,3445
-0.188,10116
-0.152,9108
-0.383,10596
-0.145,8899
-0.131,8752
0.049,4219
-0.0923,8170
-0.0281,6457
0.187,1107
0.337,248
0.138,3696
0.0807,3745
-0.0849,6832
0.0921,1588
-0.112,7354
-0.0534,8160
-0.629,11024
-0.0448,6272
0.114,1796
-0.218,9263
-0.272,10665
-0.199,9416
-0.0115,5736
-0.189,8804
0.0935,2684
-0.194,10518
0.142,1324
-0.109,8128
-0.267,8475
-0.147,9270
-0.0925,9645
0.153,931
-0.181,9066
0.512,382
0.111,3042
-0.00108,5486
0.0553,3642
0.0825,2261
0.123,3183
-0.175,8819
-0.371,10477
-0.259,8763
0.235,190
0.267,414
0.344,767
-0.213,9238
0.441,43
0.165,981
-0.00707,5487
-0.232,10122
0.039,4148
-0.113,7986
-0.177,8502
-0.111,10184
-0.161,8952
-0.215,10080
0.0477,4517
0.302,1766
0.257,2221
0.0408,3993
-0.148,10139
0.172,2748
-0.3,9735
0.281,1890
0.369,2228
-0.107,8480
0.182,890
0.00794,5113
0.218,1517
-0.332,10404
-0.22,8246
0.171,550
-0.036,6951
0.742,1183
-0.267,9148
-0.106,7596
0.0536,4183
0.119,1129
-0.0276,6288
0.153,2552
0.433,572
-0.0164,5879
0.147,3312
-0.0518,7642
-0.186,10276
0.0227,4643
0.179,1633
0.0375,4295
-0.26,9420
0.287,45
0.0375,3661
0.166,1107
-0.17,8295
0.223,1483
-0.113,6777
-0.121,6927
-0.206,9014
-0.234,8987
-0.0779,7735
0.186,2006
0.228,2384
0.197,1424
-0.0239,6646
0.0915,2219
0.0335,4172
-0.0317,5797
0.3,967
0.359,840
0.0265,4628
0.143,1331
-0.0213,5798
0.181,1053
-0.244,9871
-0.141,8988
0.0155,4783
-0.358,9553
-0.692,10867
-0.205,7841
0.323,2328
0.109,3172
-0.267,10976
-0.215,9974
0.0264,4579
0.194,2955
0.491,684
0.0504,3893
0.254,544
-0.0934,9242
0.268,2116
0.0951,3285
0.0439,4529
-0.0687,8303
0.00305,5490
-0.0437,6135
-0.00506,5705
-0.382,9218
-0.0951,6386
-0.183,10172
-0.07,6472
-0.385,10616
-0.294,8611
-0.438,10850
-0.131,9237
-0.187,10342
-0.352,9400
-0.161,9656
-0.18,10133
0.542,406
-0.0987,7631
0.0558,4066
0.121,2558
0.066,3311
-0.68,10549
-0.207,8374
-0.331,10937
-0.0129,5603
-0.0602,8571
0.291,1489
-0.0736,7582
-0.137,8391
0.349,26
0.0455,4256
-0.167,10254
0.0859,2882
0.00688,5137
-0.107,7131
-0.0415,6226
0.0377,4147
-0.0214,6832
0.617,325
-0.0376,6281
0.0187,4956
0.0394,4598
0.0707,3342
0.0457,4354
-0.0216,6248
0.032,4574
0.132,2281
-0.117,8059
-0.00316,5630
0.0311,4300
-0.278,10163
0.291,1453
0.165,948
0.312,639
0.453,556
-0.0119,5569
0.297,2257
-0.186,9565
-0.1,7291
-0.903,11015
-0.125,8507
0.0548,2296
0.0545,3047
0.135,2283
-0.335,10791
0.122,2286
0.0222,4691
0.0827,3820
-0.281,10709
0.835,1134
-0.533,11002
0.0271,4463
-0.0403,6985
0.128,2127
0.0649,3263
0.456,3
0.0952,3894
-0.653,10088
0.0264,3987
0.213,811
0.238,1267
-0.349,10867
-0.326,9963
-0.114,7861
-0.0402,5924
0.284,601
0.036,4443
-0.569,10844
-0.252,9480
0.0176,4680
-0.0875,7765
0.163,542
-0.0904,7849
0.0483,3717
0.0484,4141
-0.15,7994
0.251,637
0.323,672
0.325,726
-0.174,9992
0.146,2454
0.329,124
0.196,751
0.0529,3919
-0.0259,6388
-0.102,8624
-0.276,10624
-0.405,10759
-0.157,10326
-0.0498,8731
0.1,3043
-0.154,8868
-0.238,7918
-0.0325,5834
-0.175,8412
0.0197,4641
0.262,1101
0.0723,2420
0.0193,4628
-0.00462,5774
0.208,1301
0.167,507
-0.00916,5436
-0.0521,7170
0.414,1345
-0.361,10424
0.0104,4870
-0.182,9421
0.703,46
0.0964,2813
-0.382,8920
0.131,2391
-0.127,8580
-0.1,7509
-0.105,7160
-0.0228,5838
-0.301,10394
-0.135,7748
-0.189,9050
-0.173,10341
-0.0274,5853
1.01,419
-0.271,9977
0.147,1253
-0.128,8614
-0.00132,5359
0.163,1915
0.377,217
-0.000145,5242
1.48,539
-0.0936,8401
0.0476,3699
0.0465,4055
-0.224,8061
0.166,2236
0.263,1722
0.0753,3101
0.133,2350
0.0414,4205
-0.0658,6738
-0.324,9762
-0.362,10275
0.0786,939
-0.093,8886
-0.344,10895
0.113,3309
-0.319,10741
0.278,2029
-0.0103,5490
0.0625,3709
0.149,1262
0.122,2214
-0.0893,6681
0.314,737
0.313,694
-0.239,9833
-0.038,6005
-0.0295,6155
0.0739,4116
-0.0361,6618
-0.00619,5804
-0.183,10609
-0.0371,6641
0.145,1162
-0.0277,6325
-0.196,8910
0.164,1529
0.136,1679
0.0346,4313
-0.0626,7772
0.188,1851
0.383,1222
0.0898,652
-0.148,9988
0.359,847
-0.143,8187
0.0737,3049
-0.176,7838
-0.101,8365
0.0963,2451
-0.0495,6279
0.136,3039
0.0899,3400
-0.256,10412
-0.141,9576
0.069,2448
-0.14,8549
0.0914,4145
-0.0922,7652
0.0704,3831
0.143,3104
0.197,331
0.149,578
0.333,214
0.0931,3362
-0.799,8999
-0.112,9684
-0.0233,5736
0.08,3540
-0.404,10841
0.109,3042
0.351,1221
-0.125,8563
-0.00498,5738
-0.0855,7934
0.316,738
0.0655,3416
-0.253,9858
0.0172,4714
-0.0554,6570
0.0869,4041
-0.206,8829
-0.159,8681
0.0282,4349
-0.22,10145
-0.385,11014
0.0386,4504
-0.116,8117
-0.479,9988
-0.0994,8591
0.243,2152
0.0283,5035
-0.0981,10190
0.0137,5027
0.175,1315
0.073,3901
0.0721,3181
0.151,3509
0.0329,4397
0.0788,3086
-0.214,10559
0.17,1865
0.124,1903
-0.0933,6167
-0.0218,6230
0.0287,4207
0.424,644
-0.144,8825
0.1,2788
0.0568,4509
0.0413,4215
0.263,55
-0.0326,5798
-0.0141,6054
0.0905,3370
-0.277,8801
-0.00632,5989
-0.203,9593
-0.0338,6270
-0.0623,6415
0.141,1450
0.183,1111
-0.229,10377
-0.0323,6532
0.517,814
-0.0264,6323
0.0369,4717
-0.152,8061
0.197,1165
0.106,2273
0.0485,4025
0.369,1778
-0.106,7148
-0.34,10974
-0.0883,7175
0.0183,4763
-0.205,8982
-0.263,9348
-0.11,7378
0.19,383
0.235,1016
-0.143,8610
0.204,2048
-0.424,10894
-0.071,7333
-0.145,8321
0.139,1103
0.116,2854
-0.0164,5834
0.373,128
-0.115,7417
0.343,487
0.049,3359
0.143,1622
0.274,1043
0.0609,4217
-0.447,10206
-0.027,4977
0.194,1254
-0.239,10599
-0.0498,6852
-0.439,10719
0.00628,5188
0.17,1334
-0.104,8736
-0.00315,5271
-0.235,9598
0.336,1243
-0.0733,7304
-0.0571,7384
0.0599,3828
0.404,922
-0.0658,7135
0.0924,3150
-0.149,8327
0.0239,4460
-0.113,9932
-0.00493,5520
0.236,1898
-0.0182,5672
-0.125,8531
-0.0497,6936
-0.0361,6301
0.0126,5128
-0.000313,4987
0.151,1883
0.127,2756
-1.61,10927
-0.00644,5394
0.196,251
0.0805,3464
-0.0205,5642
0.0698,2433
0.127,3093
-0.0469,6941
-0.0411,6912
0.143,2242
0.182,386
0.268,954
-0.168,9666
-0.034,7822
0.0977,2268
0.45,777
-0.0584,7866
-0.563,10820
-0.00602,5592
-0.0647,7914
0.147,1280
-0.232,10273
-0.0761,8987
-0.111,7456
0.225,280
-0.144,9865
0.0444,4163
0.615,397
-0.0374,6215
0.101,3213
-0.207,6375
-0.371,10464
0.00993,5191
0.0165,4870
0.373,1964
0.156,3575
0.233,662
-0.0606,6467
0.25,1151
0.237,901
-0.21,10230
-0.212,10344
-0.111,8097
-0.135,8667
0.0484,3996
0.506,1270
0.0131,4941
-0.00916,4998
0.111,3510
0.0352,3976
0.02,4789
0.12,3344
0.0261,4378
-0.106,7958
0.0601,4471
-0.107,10510
-0.155,10001
-0.0539,6285
-0.345,10981
0.0866,3639
0.421,1076
-0.308,10846
-0.0577,7028
-0.141,8379
0.263,2819
0.145,3164
0.216,1563
-0.174,10104
-0.295,10839
-0.114,8225
0.488,109
-0.57,10251
-0.133,8097
-0.127,8279
-0.078,6718
-0.00354,5264
-0.0815,7594
-0.0516,6963
-0.0688,7411
0.0593,3393
0.163,2064
-0.0381,6201
-0.181,8864
-0.0252,6231
-0.14,7054
-0.0526,6486
-0.217,9528
0.29,1202
-0.0767,7777
0.0642,3898
0.247,911
-0.0424,7484
-0.184,10385
-0.128,8127
0.0994,2542
-0.195,7523
-0.0365,6906
0.227,639
-0.0462,8605
0.196,2294
0.141,3272
-0.429,10359
0.435,464
-0.0722,8120
-0.357,10942
0.0642,2877
-0.102,7859
0.0145,4928
0.0486,4133
0.0309,4149
0.175,1948
-0.0351,5986
-0.172,6899
0.0354,4445
0.289,1263
-0.0607,6643
-0.0995,8926
0.00432,5243
-0.0337,5958
-0.00018,5154
-0.713,10921
0.43,114
0.0295,4122
-0.078,8142
0.0448,4281
-0.0753,8329
-0.372,9957
-0.00572,5803
-0.131,9982
0.281,2579
-0.312,8638
-0.505,10068
0.481,1552
0.205,911
0.191,1647
0.436,181
0.0738,3260
0.411,704
-0.0911,8490
-0.0722,8376
0.0781,3060
-0.245,9820
-0.0857,8215
-0.155,9843
0.261,3109
0.126,2478
0.0493,3856
-0.118,9373
-0.151,10450
-0.136,8072
-0.0308,6220
0.124,2628
0.148,1512
-0.133,8250
0.273,488
-0.0626,6667
-0.047,7180
-0.0311,6505
0.113,1927
-0.0922,8121
-0.246,8337
-0.285,10895
0.16,2593
-0.0458,7214
0.059,3608
0.256,1635
0.0599,3605
-0.161,10368
-0.0681,6229
-0.0365,7404
0.154,1220
-0.00331,5297
-0.4,10026
0.166,3355
-0.15,7460
-0.107,9027
0.357,559
0.044,4172
-0.396,10150
-0.46,10741
-0.176,9066
-0.129,8606
0.063,3154
0.788,1351
-0.184,9760
-0.0144,5631
0.189,2668
0.0982,2450
-0.0332,6252
-0.255,9608
-0.038,5593
0.243,2124
-0.0536,6314
-0.162,9442
-0.274,10772
0.201,1859
0.155,1718
-0.421,10711
0.172,982
-0.118,9532
-0.126,10176
-0.126,8462
-0.0359,6187
0.287,492
0.156,1461
0.0807,3023
0.0721,3009
0.41,515
-0.138,7961
-0.143,6182
-0.119,7325
0.17,1211
-0.0436,6992
-0.14,7542
0.0496,3986
-0.853,9487
0.0141,4645
0.0781,2564
-4.27e-05,5276
-0.288,10479
-0.0538,6679
-0.263,7648
-0.0836,6213
-0.0451,7038
-0.212,9452
0.0375,4770
0.0892,3378
0.771,96
-0.173,9315
0.0213,4885
0.11,1974
0.248,474
-0.638,10894
-0.0453,7326
-0.075,6768
-0.0582,7258
0.0599,3251
-0.0249,5317
-0.0709,6049
-0.303,7878
-0.167,9045
0.146,1491
0.0579,3878
0.347,1186
-0.0404,6055
-0.26,8507
-0.0472,6669
-0.281,11013
0.198,1768
0.285,514
0.0451,3914
0.18,2224
0.0945,3337
0.275,1058
0.011,5036
-0.127,8756
-0.0386,6026
0.163,3027
0.614,425
-0.0201,6057
0.141,1992
0.0573,3884
-0.121,8415
-0.0349,6146
-0.0916,7928
-0.0237,6046
0.111,1263
0.198,1561
0.572,81
-0.262,10055
0.0495,3935
-0.123,8682
-0.12,10027
-0.19,9821
-0.0107,5828
-0.513,10040
-0.614,10711
0.139,2396
-0.147,8689
-0.00785,6978
-0.25,9879
0.207,1128
0.0419,4059
1.42,240
-0.261,10792
0.201,749
0.00362,5237
-0.28,9963
-0.118,8537
-0.451,10825
0.251,275
0.297,109
-0.00472,5542
-0.116,6890
-0.00561,5242
-0.16,5218
0.242,859
0.115,2149
-0.00784,5375
0.0149,4743
0.309,189
-0.223,9608
0.361,134
-0.0992,8022
-0.0593,5832
-0.0969,7306
-0.0925,6403
-0.22,7987
-0.0162,5988
0.309,206
-0.0397,6619
-0.215,9607
0.658,612
-0.254,10632
-0.0542,6855
0.00973,5086
-0.18,7587
0.141,1526
-0.247,9827
-0.172,9853
0.0432,4553
-0.0405,6211
-0.0151,5393
-0.207,9862
0.155,2448
0.299,911
0.0476,3678
-0.0383,6858
0.265,870
0.0906,3288
0.115,3903
0.21,1657
-0.217,10122
0.00626,5272
-0.19,9151
-0.141,7447
-0.29,9491
-0.249,9230
-0.289,10814
0.0349,4789
0.352,1440
0.103,2491
-0.0308,5774
-0.67,11027
-0.382,11012
-0.0659,7241
-0.0298,5693
0.0895,3502
-0.00145,5170
-0.116,7725
-0.207,8835
-0.361,11029
-0.183,8515
-0.0323,6046
-0.0124,5244
0.396,906
0.0567,3708
-0.154,10130
0.0146,4659
-0.367,9918
0.0234,4137
-0.116,7177
-0.131,9067
0.0343,3383
0.116,2145
0.0471,4204
0.00335,5177
0.071,2976
0.116,2603
-0.00487,5497
-0.122,7638
-0.0851,6716
0.624,1287
-0.144,7553
-0.0204,5819
0.0706,3940
-0.0521,6416
-0.331,10012
-0.134,8177
0.132,3661
-0.0932,7674
0.251,705
0.0951,3827
0.205,1176
-0.211,8634
-0.283,9813
0.025,4492
0.347,93
0.0324,4620
0.317,289
-0.106,8910
-0.122,8347
0.118,3067
0.176,1303
0.198,1509
-0.0959,8143
0.0881,3106
0.141,3121
0.0155,4619
0.0546,2275
-0.00567,5450
0.104,2584
-0.151,6109
-0.235,10343
0.0457,3819
-0.367,10837
0.172,2869
-0.155,9663
-0.054,6695
-0.0251,7015
0.108,2837
0.192,1636
-0.174,10256
0.105,3100
-0.217,9064
0.158,2087
-0.0276,6206
-0.043,6705
-0.0801,7057
-0.164,9471
-0.174,8756
-0.0136,5167
0.1,2122
-0.243,10227
0.422,363
-0.055,7718
-0.231,7311
-0.172,10443
0.0206,4806
-0.0702,7683
-0.0809,7049
0.000115,5127
0.223,2361
0.849,176
-0.193,8873
0.0404,4362
0.127,3267
-0.0778,7709
-0.361,9998
0.315,1534
-0.0606,7920
-0.142,10143
0.0592,3146
0.0247,4865
-0.0895,8485
0.072,3882
0.117,2370
0.0637,3590
-0.538,11001
-0.239,9417
0.169,3072
-0.366,10818
0.0487,3521
-0.188,10326
0.241,1290
0.426,740
-0.469,10099
-0.149,8707
0.113,2274
0.127,3203
0.0825,3384
0.614,1061
1.52,194
-0.0923,7260
-0.24,9854
0.196,1666
0.351,1907
-0.41,9762
0.0458,4212
-0.0423,6989
-0.237,10392
0.129,3026
0.134,2713
0.31,864
-0.00822,5821
0.00335,5207
0.0937,1958
0.105,3003
-0.214,9904
-0.000167,5319
-0.614,10955
-0.29,10932
0.0147,4869
-0.161,10131
-0.106,7340
-0.325,9960
0.0636,3803
0.0995,2491
-0.0566,8298
-0.204,7388
0.0544,4119
-0.182,8569
-0.218,10269
-0.108,9027
0.0447,4041
-0.0723,7809
-0.0886,6635
0.111,2898
-0.0926,6673
-0.119,10266
0.0288,4233
0.206,1687
-0.241,9718
0.172,1325
-0.062,6791
0.165,802
-0.0884,8141
0.147,1178
0.586,85
-0.0262,5764
-0.17,8122
0.00151,5310
-0.102,9753
-0.108,8310
0.113,3503
0.366,501
-0.261,8830
-0.115,9859
-0.135,9560
0.395,112
-0.157,8585
-0.226,9798
-0.186,8968
0.0369,4163
-0.112,8105
-0.0658,6785
0.243,717
0.0559,3765
0.0614,3871
-0.0321,6422
-0.181,10267
0.322,1373
-0.384,10981
-0.0854,6717
-0.135,7899
0.0354,4594
0.0335,3282
-0.252,10491
-0.371,10460
0.102,3277
-0.0442,6206
-0.131,9908
0.247,1310
0.295,389
0.0992,3224
0.0135,4772
0.0835,3559
0.0358,4011
-0.0708,7588
0.0376,4263
-0.332,11016
0.382,857
0.688,1322
0.114,1384
-0.218,10341
-0.0544,6211
-0.118,7259
0.351,1912
0.12,3698
-0.0651,6522
-0.153,9979
0.11,3349
0.168,1732
0.307,2750
-0.211,7215
-0.118,8000
0.031,4181
-0.114,8425
0.143,2253
0.363,830
0.0974,2999
-0.107,8634
-0.188,8869
0.0194,4752
-0.0321,5198
-0.144,7342
0.128,3202
0.00641,5391
-0.0633,6558
0.609,19
0.286,1079
-0.142,8589
0.122,2073
-0.0926,10105
0.0528,4110
-0.37,10623
0.14,2916
-0.156,9410
0.021,4283
-0.113,9296
0.21,1460
0.014,4852
0.0485,4289
0.292,1726
-0.0224,6239
-0.0648,7346
-0.412,10802
-0.133,7431
0.0072,5463
-0.0602,6292
-0.0818,7306
0.0366,4310
-0.2,9575
0.092,2780
-0.0403,6137
-0.457,10455
0.282,1834
-0.0339,6361
0.338,840
0.0315,4872
0.558,467
-1.05,10998
0.191,565
-0.164,9756
0.0884,3474
0.00319,5248
-0.168,9095
0.373,2714
-0.0882,8106
0.0974,2754
-0.0779,7211
-0.141,8482
-0.00978,5900
0.0318,4617
-0.175,9526
0.0826,3277
0.0689,4106
0.0579,3510
0.227,242
-0.00362,5684
-0.183,9260
-0.0966,7998
-0.0626,7466
-0.0364,6361
-0.15,8580
-0.197,9363
-0.0261,5548
-0.148,9894
-0.207,10624
-0.208,10632
0.263,1116
-0.0667,6587
-0.126,7844
-0.165,9864
-0.248,10735
0.0707,3256
0.302,472
0.118,3151
0.263,1049
-0.226,10895
0.13,846
-0.186,8820
-0.301,10156
0.0109,5227
-0.177,9944
0.0475,3410
0.132,1790
0.291,623
-0.194,6796
-0.314,9858
0.121,3614
0.0473,3450
0.122,958
0.00504,5079
0.0698,3326
0.195,3095
-0.0523,6549
0.0272,4453
0.0672,2340
-0.0103,5762
0.141,1869
0.158,328
-0.0749,6804
0.149,1994
0.114,3100
0.0946,3013
0.613,124
-0.0246,5854
0.0305,4546
-0.0119,5962
0.0557,3751
0.0303,4431
0.0617,3647
-0.218,9316
-0.0698,6687
0.0674,3813
0.0391,4030
-0.215,8905
-0.126,6163
-0.299,9795
1.17,367
0.043,3809
-0.153,8458
-0.0335,6087
0.213,2162
0.278,1739
-0.0711,6094
-0.0692,8809
0.0407,3631
0.193,1554
0.316,387
-0.188,7677
-0.00147,5137
-0.159,9482
0.36,1458
0.358,320
-0.108,8272
-0.167,9934
-0.309,8977
0.000782,5393
0.0941,2620
0.0787,3835
-0.104,6815
0.214,1309
-0.041,5665
-0.0289,5910
-0.0876,7367
-0.367,10938
-0.235,10365
-0.0765,7120
-0.0224,5703
-0.189,9659
-0.01,6056
0.859,445
-0.0409,6368
0.0695,3842
0.234,153
0.0182,4868
-0.048,7550
-0.228,9585
-0.225,7920
-0.16,9012
-0.047,5943
-0.181,8518
-0.518,10990
-0.175,7973
-0.179,8528
0.185,2410
0.365,982
-0.36,10214
0.00775,5056
-0.0194,5862
0.0941,2639
-0.0592,6687
-0.0635,6932
0.0863,2601
0.0822,1143
0.101,2871
-0.283,10896
0.0174,4952
0.0494,3865
0.0639,3936
-0.169,8950
-0.307,10046
-0.137,7734
-0.244,8091
0.428,1183
-0.0541,8228
-0.0277,6273
0.121,2645
0.435,984
0.517,166
-0.0307,5892
0.129,1318
-0.0881,8595
0.415,839
0.127,2830
-0.0993,7172
-0.204,7405
0.092,2378
0.323,361
-0.365,9893
0.0717,3662
-0.218,8958
-0.135,7860
0.227,886
0.0129,4911
0.103,2859
0.116,3229
-0.0291,5742
0.0689,3148
0.0984,2612
-0.3,10505
0.185,610
-0.186,9629
0.0916,3392
0.605,172
-0.252,10842
0.202,511
-0.204,9929
0.35,333
0.243,1943
0.0609,3555
-0.0858,8060
0.119,3140
-0.276,8437
0.175,1872
0.0645,3529
0.412,351
-0.114,9334
-0.094,6953
0.333,198
-0.186,8693
0.027,4677
-0.416,9132
0.0261,3933
0.0756,2803
-0.463,10371
0.102,1876
0.527,2164
0.858,613
0.0714,2893
0.137,1891
-0.0317,6207
0.586,341
-0.0175,5358
0.462,935
-0.0728,7489
0.101,2332
0.175,2781
-0.156,7719
0.255,2433
0.0976,3536
-0.0543,6768
-0.0672,7558
-0.227,8724
0.0867,3065
-0.6,10965
0.292,1496
-0.127,10301
0.131,2987
-0.0226,5569
-0.0139,5564
0.0226,4739
0.325,509
-0.0213,6711
-0.0404,6843
-0.383,10249
-0.164,9279
-0.19,8009
-0.379,10567
-0.145,7325
0.0376,3637
-0.237,9000
-0.0671,7053
-0.158,9204
0.0503,3677
0.115,2755
-0.0638,9190
0.17,1664
-0.113,8439
-0.0744,6944
-0.14,8279
0.0523,3505
0.149,2481
-0.0231,7247
0.187,894
-0.0894,7745
-0.14,8196
0.033,4375
-0.00489,5638
0.0702,2916
0.114,2747
-0.146,9072
-0.12,7401
0.0305,4636
-0.114,9075
-0.0838,8073
-0.29,9990
0.26,1342
0.228,2858
-0.313,8829
0.0827,1499
0.0674,2686
-0.628,9887
0.0743,4226
-0.636,9379
0.25,1707
0.122,1965
-0.157,10782
-0.268,9264
0.373,247
-0.107,6982
-0.331,10620
0.0614,2912
-0.0352,6868
-0.0969,6358
0.0645,3498
-0.0784,6534
0.236,2365
0.115,2584
0.186,2489
0.0805,3092
-0.0302,6182
-0.0161,5609
-0.437,10493
-0.16,9879
-0.0329,6597
0.0061,5166
-0.0142,5743
-0.208,5990
0.04,4216
0.0859,2942
-0.214,10769
0.56,327
-0.445,10029
0.108,3637
-0.13,9941
-0.0351,7099
-0.127,7556
-0.00448,5602
0.107,3137
0.0139,4880
-0.0837,6991
0.114,1691
0.165,1657
-0.024,5318
-0.0119,6004
-0.645,10909
0.0713,3827
-0.228,9940
0.367,95
-0.124,9128
-0.0666,6677
-0.214,10713
0.286,686
0.205,1786
0.0334,4243
-0.135,8008
-0.123,9006
0.399,1017
-0.11,9051
0.0609,2735
-0.0446,6275
-0.0358,5921
-0.258,9128
-0.261,9854
-0.262,10813
0.0365,3968
-0.116,9411
-0.0823,6912
-0.276,10304
0.108,2843
-0.468,9885
0.129,2882
0.0118,4724
0.44,752
0.118,2601
0.294,896
0.0896,4066
-0.0675,7373
-0.454,11010
0.231,1073
-0.289,10087
0.00569,5246
-0.0421,6829
0.023,4635
0.0651,4046
-0.011,5507
0.0146,4881
1.33,1066
0.0425,4426
-0.0764,7473
0.0905,2143
-0.182,10120
0.238,1441
0.0478,3880
0.383,264
-0.00564,5611
-0.0506,8176
-0.155,8214
0.0893,2402
-0.0948,8235
0.0143,5177
0.0524,3342
0.374,302
-0.187,8795
-0.131,7707
0.122,2790
-0.11,9504
0.0767,3224
0.0985,2173
0.119,2716
0.0571,3839
-0.238,9151
0.0498,3520
-0.0913,8985
0.117,3374
-0.78,8978
-0.093,7876
0.568,2020
-0.125,8270
0.0933,1520
0.0672,3669
-0.409,9390
-0.585,10951
0.0338,4083
0.00738,5185
0.005,5255
-0.0104,5739
0.0805,3488
0.235,469
-0.0261,5730
-0.236,8276
-0.02,6163
-0.0862,7642
-0.102,7127
-0.142,8787
0.0769,3514
-0.0134,5630
0.0592,3474
0.111,2537
0.129,1594
0.28,1607
0.0301,4277
-0.188,9836
0.0473,3475
0.229,375
0.441,180
-0.201,10439
0.118,3356
0.0204,4967
-0.195,9266
-0.0403,6655
0.0686,4169
-0.0801,7734
-0.332,10939
0.218,1138
0.428,761
-0.0521,6953
0.219,1393
0.11,2426
0.0268,4747
0.168,2334
0.0803,2591
-0.393,10987
0.0111,4961
0.237,717
0.106,3884
0.092,3844
0.164,1750
-0.229,9560
-0.51,10494
-0.121,8297
-0.0183,5525
-0.362,10577
-0.253,10195
0.0426,3551
0.565,92
0.35,290
0.0224,4731
0.313,1494
0.0319,4244
-0.0574,7346
-0.19,8790
-0.214,9144
0.101,3610
-0.287,9484
0.152,1622
-0.147,8495
-0.268,7511
0.765,460
-0.48,6806
0.628,1542
-0.243,10723
0.268,2814
0.267,1859
-0.127,8801
0.0892,3860
-0.125,7964
0.048,3464
0.24,224
0.00155,5035
0.109,2398
0.0761,3022
-0.128,7127
-0.0979,8004
-0.0934,9665
0.0145,5045
-0.593,11001
-0.292,9832
0.12,2858
0.0479,3562
-0.0371,6791
0.00702,5030
-0.0591,6724
-0.244,9964
0.0557,4183
0.000171,5512
-0.221,10154
0.385,125
0.14,2583
-0.29,10640
0.385,700
-0.182,10236
0.0473,4174
0.198,1810
-0.451,11026
-0.145,8186
-0.272,10235
-0.111,8290
0.0555,3217
-0.403,7488
-0.321,9275
-0.111,7079
0.333,791
-0.0693,7711
0.186,1814
-0.0502,7523
-0.0154,5749
0.111,3241
-0.23,8551
-0.12,8545
-0.0605,9581
-0.0233,5661
-0.0633,5994
-0.0877,8014
0.0313,4031
0.122,1989
-0.0925,8569
0.0829,3859
0.0355,3554
0.0447,3622
0.00234,4898
0.157,1753
-0.177,10866
-0.0339,6414
-0.167,7493
0.0629,4080
-0.448,10522
0.0166,4711
0.294,976
0.311,738
0.216,1759
0.044,4249
-0.106,7825
0.26,2197
0.00956,5040
-0.458,6677
-0.147,5962
0.467,1695
0.108,2680
0.144,2287
-0.104,7585
-0.00681,5811
0.0456,3487
-0.0776,8824
0.239,1250
-0.359,10496
0.0166,4790
-0.211,8006
-0.071,6381
-0.105,7583
-0.299,7895
-0.0615,5942
-0.517,11031
0.122,3349
0.155,2360
0.282,931
-0.0491,6999
-0.0389,6434
-0.199,8457
0.0534,4209
0.0929,2432
0.148,2183
-0.0827,7030
0.177,1509
-0.327,9172
-0.487,10880
0.106,1482
0.026,4457
0.00584,5067
0.232,787
0.294,1600
0.00123,5183
0.0481,3741
0.13,2168
0.154,2361
0.145,1947
-0.0448,5987
-0.159,7507
0.137,1776
0.00887,4883
0.197,1570
0.0512,4381
-0.0146,5393
-0.203,8458
-0.0577,6927
0.0718,2891
-0.0868,7340
0.0787,3560
0.225,1730
0.273,1405
0.124,2044
-0.0669,6704
0.0606,4015
-0.0835,6809
0.234,2556
-0.0202,5724
0.226,1036
-0.192,9749
-0.109,7130
-0.4,10869
-0.124,9630
-0.0914,7594
0.0257,4390
-0.0519,8520
-0.156,8494
-0.0213,5656
-0.182,8447
-0.365,10633
-0.0973,7026
0.0686,3342
0.229,1797
-0.274,9695
-0.251,9990
0.263,2040
-0.226,9386
0.133,1948
-0.267,9583
0.976,1084
-0.354,10358
0.421,907
0.0304,4378
0.66,27
0.364,460
-0.384,10520
0.0512,4134
-0.0329,6380
-0.231,10196
0.0817,4005
-0.327,10977
0.0489,4407
0.016,5024
0.0476,4268
-0.0355,6945
-0.534,11010
-0.0481,7061
-0.488,8374
-0.109,6924
0.126,1704
0.167,1022
-0.0372,6319
0.0569,4576
0.19,489
-0.177,9512
-0.16,9895
0.0194,4634
-0.0392,7640
-0.158,7891
-0.027,5181
-0.44,10605
-0.0435,6374
-0.00905,5265
0.192,2144
0.148,2217
0.184,899
-0.216,10729
-0.165,9739
0.00961,4940
0.0574,3273
0.22,1254
-0.0367,5892
-0.684,10952
1.61,643
-0.198,10217
0.0204,4832
-0.0587,7456
0.0322,4671
0.241,1265
-0.0251,5626
-0.088,8348
-0.568,10947
-0.000898,5131
0.0221,4532
-0.397,10387
0.0223,4189
0.133,1566
-0.19,9629
0.0927,3502
-0.269,8977
0.109,3529
0.00189,5292
-0.136,8265
0.225,3159
-0.0777,4453
-0.37,6900
-0.342,10230
-0.407,10644
0.0428,4383
0.174,2904
-0.0793,7999
-0.0948,7110
-0.31,10252
0.184,918
0.259,930
0.324,549
0.0743,4571
0.29,1193
-0.112,5838
-0.572,10553
-0.361,10067
-0.0973,6548
-0.212,10284
-0.174,7720
-0.245,9612
0.21,305
-0.178,10123
0.124,3152
0.254,891
-0.115,8550
0.264,2370
-0.137,10658
0.229,577
-0.239,10189
0.177,1800
-0.0759,7171
0.15,2535
-0.0193,5947
-0.0227,5818
-0.216,7105
-0.192,7778
-0.296,7902
-0.114,8186
0.321,322
-0.0901,8343
-0.352,10082
-0.00383,5297
-0.0778,7293
-0.0187,5653
-0.0944,9695
0.00515,5030
-0.059,5287
-0.182,8708
-0.127,7377
-0.00306,5412
-0.213,10335
0.116,1478
0.0784,2788
0.117,2347
0.923,266
-0.0148,6287
-0.00961,5451
0.0086,5010
-0.0405,6734
-0.15,7386
-0.0418,5803
0.158,2198
-0.0191,5675
0.0765,3404
0.261,244
-0.0493,6249
-0.00585,5553
0.197,1971
-0.105,9389
0.0617,2961
-0.0737,7508
0.427,317
0.0489,4020
-0.424,10917
-0.117,8145
-0.121,8763
0.304,235
-0.199,8179
-0.57,10941
-0.167,7390
-0.17,9388
0.0761,3304
-0.0984,7905
-0.141,8498
0.38,2210
-0.166,7551
-0.0544,7241
-0.0509,7394
0.305,616
0.392,91
0.0763,1879
0.388,1057
-0.036,7116
-0.144,9176
-0.086,6931
-0.199,9353
0.465,269
-0.394,10628
0.00841,4903
-0.142,9342
0.089,3131
-0.116,10085
-0.13,6493
-0.0942,7827
0.0737,2680
-0.0295,6246
0.564,67
0.108,3056
-0.183,7209
-0.0741,6300
0.0636,3836
-0.12,9948
0.111,2384
0.125,3133
2.17,114
-0.24,10394
-0.179,7593
0.0676,2690
-0.0533,5778
-0.143,8906
-0.212,9060
0.549,293
-0.101,9702
-0.243,9735
0.305,796
0.186,1411
0.259,2603
-0.0539,7082
-0.00228,5407
-0.185,10497
-0.479,10790
-0.0303,6047
0.00144,5271
0.227,774
-0.00616,5480
0.0273,4150
-0.211,9936
-0.287,10179
-0.000756,5338
-0.0805,7219
0.105,2784
-0.367,10766
0.453,1322
0.00323,5329
-0.556,10089
0.346,1725
0.049,4222
0.231,1390
0.0543,3364
0.194,1056
-0.0347,6127
0.289,1610
-0.151,9521
0.226,2267
0.133,2914
0.141,1817
-0.112,7126
-0.204,8357
-0.324,8926
0.582,260
-0.276,9247
-0.613,10912
-1.02,10025
-0.109,8685
-0.0568,7317
-0.182,10098
-0.0906,8090
0.407,396
0.389,985
-0.241,9000
-0.0435,6478
0.141,1952
0.668,532
-0.00268,5643
0.00596,5149
0.209,1183
0.0173,4871
-0.169,9528
-0.0684,7533
-0.0125,5705
-0.0346,5886
-0.0413,5988
0.0466,3794
0.00436,5195
0.0374,4344
0.0156,5028
-0.385,10483
0.376,1323
-0.0052,5474
0.145,2549
0.206,1623
-0.251,9478
0.629,133
-0.111,8010
-0.197,9731
-0.00913,5872
0.055,4483
0.486,823
-0.241,9265
0.261,1380
0.101,1680
-0.0715,8574
-0.163,8041
0.16,3030
-0.0958,6833
-0.312,9374
0.424,1337
0.0396,3802
0.181,2252
-0.0118,5692
-0.21,6857
0.791,1640
-0.0642,8034
0.487,36
0.224,1252
0.154,1791
-0.306,10787
0.0292,4541
-0.0612,8108
0.134,1118
-0.241,10789
0.0469,4407
-0.297,7107
0.412,221
-0.0819,7268
0.136,1649
0.0737,3945
0.663,816
0.599,466
-0.073,7221
0.11,1991
0.244,315
0.128,3266
-0.139,7155
0.0517,3878
0.203,1058
0.123,2337
0.0407,4473
0.0932,3460
-0.235,9806
0.157,2411
0.355,711
-0.0135,5644
0.136,610
0.352,900
-0.21,10063
0.236,1237
-0.0712,5706
0.24,98
-0.0278,6048
0.0866,3193
-0.243,10407
-0.0191,6015
-0.212,9790
0.14,1512
0.091,3282
-0.0291,5871
-0.0316,6186
-0.0196,5794
-0.0214,6369
-0.0156,5945
-0.082,8423
-0.0162,5702
0.0636,4147
-0.0446,5623
-0.0592,6787
-0.319,11000
-0.227,10649
-0.155,8728
-0.559,10985
-0.25,9766
-0.277,10883
0.0346,4345
0.0486,4207
-0.207,8739
0.013,5059
-0.0425,7499
0.14,2079
0.102,2521
0.00378,5201
-0.295,9326
0.0927,3632
0.173,2276
0.156,2198
-0.0421,6148
0.0139,4732
-0.188,8628
0.313,1530
0.279,836
0.258,2091
0.187,941
0.183,544
-0.339,10323
-0.052,6206
-0.167,7803
-0.263,8334
0.321,338
-0.216,10153
-0.0342,6112
-0.336,9736
0.12,2102
-0.152,8524
-0.0981,8938
0.0317,4524
-0.236,10239
0.0108,5091
-0.382,10490
-0.0576,6080
-0.0247,5983
0.257,269
-0.00355,5486
0.067,4222
-0.0725,6533
-0.359,10964
-0.158,9366
-0.0516,7670
-0.459,10818
0.446,850
-0.234,10200
0.14,3093
-0.131,9266
0.125,957
-0.0206,5487
-0.427,10777
0.0342,4386
0.133,2545
-0.137,8778
0.0133,4782
-0.0344,5866
-0.0272,5807
0.574,266
-0.112,8956
-0.124,9325
0.0387,3642
-0.0491,6392
0.103,2064
-0.0219,5789
1.08,96
-0.0636,7458
-0.164,9645
-0.0575,7583
-0.15,8134
-0.247,8717
-0.057,6532
0.0103,5072
0.0476,3827
-0.0743,7708
0.242,2840
-0.467,10130
-0.154,8568
-0.135,8899
0.0203,4997
-0.171,8479
0.759,118
0.156,1713
-0.526,10446
0.0886,2914
-0.0229,6071
0.095,3095
-0.00301,5296
0.161,1680
-0.0888,7343
0.183,218
-0.0307,6340
0.0558,4310
0.0465,3835
-0.0963,7507
-0.0472,5914
0.107,2292
0.0759,2696
0.0221,4955
-0.288,9532
0.00238,5225
0.0112,4687
-0.0345,6003
0.104,1440
-0.267,9936
0.143,2965
-0.0851,7228
0.319,516
0.0364,4079
0.0592,3827
-0.0262,6012
0.0877,3377
0.187,2031
-0.142,8944
0.171,1097
0.00648,4823
-0.026,6150
-0.082,7168
0.161,3655
-0.055,8622
0.255,787
-0.118,9059
5.4e-05,5247
0.173,1208
0.315,1293
0.0169,5089
-0.0691,7629
-0.404,10573
0.242,1772
-0.232,9499
-0.153,7793
0.253,1249
-0.177,9358
0.0835,3677
-0.213,10500
-0.14,8053
0.138,2158
-0.0838,8531
0.24,129
-0.219,8376
0.494,179
-0.126,8025
-0.567,10247
0.202,380
-0.147,10451
0.276,1634
0.0275,4429
-0.21,8253
-0.918,11010
-0.0905,9472
-0.179,9578
-0.0354,6790
0.149,2608
-0.186,8569
-0.423,11028
-0.223,10309
0.115,2035
0.186,2467
-0.0847,8560
0.191,3042
0.1,3394
0.0808,3184
-0.0658,7327
-0.324,10480
0.205,1537
0.107,3048
-0.354,9919
0.194,701
-0.268,8372
0.118,3301
-0.102,7868
-0.128,6734
-0.0812,5145
0.102,2879
0.000632,5041
-0.416,9208
-0.475,10458
-0.104,6794
-0.183,8530
-0.101,8438
0.0213,4542
-0.0217,5567
0.182,785
-0.11,10319
0.0984,3429
-0.112,9241
-0.0323,6458
0.182,3214
5.19,230
-0.372,9922
-0.431,8759
-0.019,5221
-0.231,10477
-0.262,9478
0.386,536
-0.0749,7948
-0.0662,6664
-0.087,7938
0.058,3529
-0.0568,6746
-0.1,7947
-0.145,8177
-0.389,7503
-0.141,9300
0.0699,2686
-0.0831,7466
-0.336,10840
-0.0222,5906
-0.0659,6055
0.117,2843
0.0554,1767
0.161,3291
-0.0267,5950
-0.761,10849
0.0281,4761
0.0462,4133
-0.0353,7547
-0.0828,5442
0.122,3478
-0.0486,7823
0.185,1458
-0.00675,5596
-0.123,9737
-0.0184,7825
0.0624,3702
-0.112,9285
0.322,931
0.00605,5192
0.102,1931
-0.273,9926
-0.00708,5307
0.0213,4735
-0.101,8854
-0.0825,7978
0.0309,4363
-0.0782,6259
-0.0633,5453
0.0999,3775
0.198,2159
0.0251,4764
-0.0423,7493
-0.0178,5954
0.139,2410
0.036,4456
0.63,826
1.08,1707
-0.0688,7083
0.112,1062
-0.115,7307
-0.282,9528
-0.143,8139
-0.0819,5780
-0.0242,5750
-0.136,10116
-0.0182,5454
-0.615,11018
0.0683,3513
-0.304,8433
0.234,780
0.246,1460
-0.113,9547
-0.119,7633
0.0373,4355
0.29,1663
-0.349,11033
-0.0615,7232
0.111,2763
-0.00972,5536
0.226,2708
0.105,3657
0.0146,4740
-0.142,8500
-0.0651,7333
-0.172,9814
0.357,732
-0.219,7942
-0.0903,7432
-0.117,6758
-0.0754,6467
-0.211,8242
0.00383,5109
-0.13,7496
-0.0676,7817
0.0574,2444
0.00836,5173
-0.111,9743
-0.0622,5928
0.416,1374
0.078,3478
-0.0527,6725
0.0136,5207
0.0803,3731
-0.447,10349
-0.181,10237
0.184,1871
0.015,4648
-0.0693,7013
0.0145,5040
-0.139,8175
0.162,2441
-0.18,9768
0.0422,4192
-0.0907,7222
-0.233,9046
-0.0207,6156
0.105,3256
0.237,438
0.124,1583
-0.0197,5838
-0.369,10654
-0.24,9183
0.0781,4067
-0.0653,7210
-0.102,9356
-0.229,8996
-0.0883,8189
0.372,1800
0.13,2296
0.0922,3327
0.189,2674
-0.117,8499
0.283,1989
0.0848,3027
-0.0678,7213
0.0445,3910
0.221,1406
0.0256,4346
0.357,824
0.0793,3879
-0.0632,7598
0.173,1451
0.447,830
-0.0554,7143
0.0183,4639
-0.0358,6452
-0.0789,8344
0.145,2274
0.213,792
-0.0754,6833
-0.0648,6556
-0.00236,5400
-0.0177,5624
0.363,825
0.136,2828
0.224,2448
0.124,1957
0.346,1262
-0.0648,6505
-0.0796,7164
-0.147,8705
0.0371,4627
-0.711,10599
-0.182,8810
0.172,1731
-0.077,7407
-0.461,8983
0.504,658
0.0316,4828
0.113,3985
0.446,2064
0.641,328
-0.21,10327
0.126,3411
0.181,2390
-0.0464,7572
0.102,1762
-0.332,10856
-0.488,10374
0.0532,4396
-0.0256,6165
-0.0403,7741
-0.000452,5403
-0.11,7689
0.0719,3160
-0.268,10797
-0.082,6889
-0.134,8432
0.102,2253
0.148,3223
-0.0231,6216
-0.0708,8241
-0.452,10420
-0.124,8283
-0.123,9779
-0.142,7269
-0.0637,6287
0.0423,4206
0.285,689
0.0385,4323
-0.0617,6713
-0.201,8364
-0.133,9305
-0.114,7962
0.541,661
0.125,1903
-0.194,9709
0.0751,3999
-0.027,5357
-0.0701,6430
-0.331,10242
0.0497,3538
0.402,152
-0.0301,5444
-0.0321,5936
0.096,3315
0.181,2569
-0.153,9303
0.147,707
-0.0144,5727
-0.0085,5344
0.104,3735
0.5,84
-0.149,8893
0.0278,4064
-0.228,10083
0.417,1339
0.0885,3933
-0.192,9646
-0.0094,5795
0.184,1583
-0.235,10212
0.472,176
0.0134,5103
0.00212,5161
0.127,1469
0.251,684
0.00855,5000
0.222,1040
-0.206,8236
-0.276,10018
0.0759,2829
0.171,1363
-0.118,7979
-0.101,8768
-0.162,9574
0.075,2183
0.0624,3672
0.0296,4462
0.276,1099
0.0412,3516
-0.00865,5752
0.272,819
-0.0955,9008
-0.143,9096
-0.0867,8180
-0.242,10939
-0.125,8599
0.498,137
-0.127,9044
-0.204,10249
0.0942,3362
-0.0906,6737
-0.0918,7346
0.156,1538
0.224,1795
0.228,1655
0.226,1051
0.139,3015
-0.257,10141
0.0264,4286
-0.00905,5720
-0.131,10250
0.0554,3582
0.0329,4536
0.132,1821
-0.135,7625
0.145,794
0.149,1293
-0.346,10973
-0.141,8217
-0.486,10114
-0.199,8651
0.115,1656
-0.00349,5530
-0.238,10397
-0.0349,6309
-0.192,8491
-0.158,8537
-0.159,8546
-0.0291,6600
0.0654,3562
0.0201,4640
-0.116,8331
0.0622,3161
-0.0756,6762
-0.064,6700
0.224,1347
0.194,2674
-0.0576,4828
0.562,1976
-0.0347,6663
-0.204,10966
-0.00397,5417
0.402,1302
0.0524,3767
-0.408,10055
0.539,122
-0.0687,7827
0.115,3496
-0.0971,8013
0.0878,3383
0.298,1502
0.0613,4642
0.0369,4566
0.156,2578
-0.196,8193
0.0746,3278
0.243,871
-0.147,10687
0.0795,2448
0.197,2150
-0.0452,6332
0.0794,3504
0.09,2726
0.129,801
0.127,979
-0.0827,8015
-0.0782,7185
-0.104,6919
-0.119,8786
0.0219,4579
0.0638,3218
-0.123,9230
-0.169,9397
0.0623,2385
0.667,960
0.0461,3942
-0.472,11030
0.234,1871
-0.0828,5741
0.0909,3071
-0.0306,5793
0.184,616
0.113,1249
-0.253,9338
0.037,4158
0.13,2474
-0.15,9381
0.369,201
-0.223,10179
-0.197,10621
0.0765,3470
0.126,1138
0.214,864
0.367,31
0.05,3705
0.295,409
-0.203,8984
-0.262,8295
-0.0629,4862
-0.0143,5898
-0.202,10648
-0.237,10396
0.261,630
0.262,1579
0.229,1764
0.197,1130
-0.0502,7134
0.0146,4985
-0.183,9269
-0.121,6990
-0.188,8780
-0.0168,6017
0.011,5165
0.226,900
0.196,1601
0.268,2725
0.0079,5008
0.37,65
-0.0142,5454
0.0137,4811
0.213,2450
-0.181,9562
0.308,902
-0.0367,5922
0.103,2189
-0.177,9035
-0.226,8403
0.0653,3589
-0.952,10070
0.122,1873
-0.0125,5438
0.158,2839
-0.0849,5177
-0.0268,6043
0.259,2259
-0.161,8867
-0.00661,5463
-0.0049,5336
0.0201,5044
-0.193,8454
-0.307,10569
0.02,4810
0.0264,4782
-0.195,8082
-0.394,10145
-0.0146,5490
0.247,475
-0.107,9399
0.0334,3483
-0.317,10565
-0.016,5109
0.0875,3443
-0.000481,5214
-0.211,6710
-0.0117,5885
0.281,1342
0.0967,3087
-0.501,10745
-0.172,9971
-0.0569,5869
-0.0754,8301
0.699,1
0.191,2468
-0.423,8542
0.224,1743
0.171,1250
0.175,1901
-0.0826,6523
0.4,804
1.01,62
0.31,2435
-0.116,9019
-0.00556,5476
-0.112,7013
0.0756,3170
0.289,845
0.0302,4367
-0.0769,7845
0.308,79
0.0579,4125
0.373,265
0.392,1337
0.0751,4086
-0.154,9928
0.191,764
0.0895,4199
-0.106,8113
0.0598,3940
0.0578,3684
-0.177,10344
-0.0862,6962
0.213,892
-0.202,8994
0.61,27
-0.123,7197
0.0481,4249
0.323,709
-0.284,9590
0.083,1556
0.2,2227
-0.115,9087
0.0362,4342
0.0942,2031
-0.237,9098
-0.0968,8775
0.195,1460
-0.173,8938
-0.0961,8604
0.156,653
-0.286,9752
-0.302,10375
-0.0705,7443
0.0742,3858
-0.0424,6171
0.174,956
-0.0914,6341
-0.526,9589
-0.181,9210
0.329,941
0.186,1837
0.139,1212
-0.0927,6437
0.155,3244
-0.148,9813
0.0468,4460
0.204,1572
-0.017,6105
-0.0735,7092
0.136,3926
-0.0349,5779
-0.00864,5016
0.0998,772
0.164,1801
-0.257,10247
-0.18,8804
-0.35,10802
-0.277,10258
-0.00605,5688
0.155,2074
-0.132,8044
0.247,1061
0.111,3031
-0.202,9491
-0.139,9118
0.0457,4199
0.424,728
-0.545,11026
0.311,1345
1.4,45
-0.005,5455
0.0392,3472
0.136,2448
0.195,2211
-0.336,10909
-0.428,11010
-0.00443,5605
-0.265,7412
0.044,3562
-0.12,8083
-0.0863,8931
-0.28,10370
0.057,3584
-0.103,9212
-0.0258,5696
-0.275,10212
-0.273,10521
0.0547,4308
0.0822,3033
0.0937,4022
-0.439,8547
0.239,2023
0.0666,3523
0.208,2522
-0.0871,7663
-0.332,9745
0.401,1055
-0.135,8243
-0.0944,7103
-0.272,10805
0.158,333
0.0516,3270
-0.396,10997
-0.00347,5091
0.281,2324
0.00896,5351
-0.00161,5577
-0.063,8673
0.132,3055
0.00447,4949
-0.806,9149
-0.217,7513
-0.178,10084
-0.0124,5945
-0.341,10511
0.145,1142
-0.422,9948
-0.317,9520
0.125,2468
0.133,2404
-0.459,11023
0.195,1938
0.115,2679
-0.364,10481
0.108,1740
0.0175,4763
-0.285,10587
-0.0594,7119
-0.122,8080
-0.133,8094
0.138,1575
0.662,136
-0.245,10484
-0.0872,7649
0.626,310
-0.214,9553
-0.151,9895
-0.00227,5532
-0.0449,6173
0.0617,3729
-0.107,7373
-0.0553,5599
-0.0405,6617
-0.209,10980
0.0664,3144
0.0444,3794
0.0695,3757
0.167,1538
0.0355,4365
-0.11,8089
0.187,2849
0.316,999
0.221,1570
-0.194,7648
-0.0631,7397
0.0252,3914
0.123,2296
0.174,1250
0.192,1946
-0.11,9295
0.0219,4940
0.00795,5217
0.0234,4705
-0.117,8846
-0.502,11009
-0.054,7260
0.199,1004
-0.143,10190
-0.0944,7325
-0.0489,6973
0.384,233
-0.0527,6293
0.414,697
0.375,488
-0.172,9081
0.276,2585
-0.433,10926
-0.421,10333
0.144,786
-0.142,9093
-0.0173,5805
0.334,1886
-0.0685,7087
0.0427,4024
-0.11,8882
0.0518,3766
0.263,1503
-0.0706,6954
0.0371,4405
-0.0832,5678
0.304,141
-0.13,10425
-0.125,7612
-0.426,10654
-0.0717,6683
-0.206,7517
-0.0241,6168
0.0231,4814
-0.11,8076
0.0363,4373
0.287,2575
0.146,2730
-0.0568,7186
-0.0266,6420
-0.225,8422
0.268,962
-0.00395,5380
-0.04,5604
-0.0334,6620
-0.12,10020
0.151,2716
0.00295,5149
0.0116,4829
0.169,2381
0.000877,5188
0.12,2271
-0.116,8521
-0.0874,7820
0.163,1179
-0.067,7573
-0.0696,6995
0.541,16
-0.222,9125
0.0131,5077
-0.191,10682
-0.439,9714
-0.196,10716
-0.241,10404
-0.398,10708
0.0329,4095
-0.272,8042
-0.198,9125
0.0106,5039
-0.156,9605
0.0144,4867
-0.0567,5949
0.408,1246
-0.00415,5460
-0.218,10858
-0.163,8873
0.0345,4417
0.0912,3103
0.202,2040
0.06,3806
-0.401,10550
0.271,593
0.0487,4401
0.033,4557
0.363,459
-0.157,8670
-0.0341,6176
0.0877,3839
0.3,1264
-0.0184,5674
-0.0571,6105
0.262,1510
0.401,544
0.0508,4565
-0.528,10105
0.732,1033
0.0507,4101
-0.0754,8727
-0.00792,5700
0.18,1929
-0.0702,7001
0.0538,3964
0.179,1932
-0.00731,5677
0.265,829
-0.221,8908
-0.254,9645
0.0931,3063
-0.237,10557
-0.27,9612
0.351,1255
0.169,2155
0.0136,4778
-0.265,8751
0.146,1471
0.221,1091
0.00306,5097
0.225,1695
0.0961,3412
0.277,1322
-0.0791,7086
-0.0775,7949
0.223,862
-0.0937,7838
-0.0616,7475
-0.256,10081
0.261,1150
-0.0133,5966
0.142,2048
0.415,2498
0.12,2859
-0.418,10724
-0.00268,5674
-0.0105,5631
-0.322,10964
0.0703,3715
0.126,3176
0.519,1149
-0.357,8909
-0.0249,6927
-0.0302,6018
-0.0161,5628
-0.258,8968
-0.209,7581
-0.537,9861
0.482,176
0.325,541
0.368,98
-0.291,9247
0.0203,4507
-0.114,7284
0.0361,4056
0.0561,3869
0.0229,4594
0.481,219
-0.322,10057
0.114,2942
0.178,1637
-0.0684,7813
-0.159,7990
-0.281,9298
0.0749,3631
-0.0486,6250
-0.00251,5785
-0.0565,7087
0.243,695
-0.0637,6213
0.281,2332
0.625,619
-0.0464,6741
0.108,1625
0.201,1670
-0.217,9630
-0.203,9737
-0.517,10372
0.151,1839
-0.137,8673
0.148,1778
-0.254,10503
-0.245,10817
-0.0584,7609
0.194,1424
0.436,212
-0.368,10002
0.213,1548
0.092,3157
-0.239,8814
-0.0535,6855
-0.161,8483
0.109,3629
0.318,217
-0.199,8139
0.642,467
-0.197,10218
-0.15,8720
0.0897,3718
0.0143,5094
-0.267,10875
0.479,1076
0.164,1456
0.0488,3450
-0.299,7233
-0.1,7593
-0.177,8880
-0.255,10263
-0.336,10975
0.0355,4652
0.0526,4322
0.683,450
0.0763,3480
0.0456,3308
-0.0565,7418
0.0332,3944
0.131,1699
0.0033,4992
0.305,1573
-0.132,5441
-0.132,9262
0.0487,3737
-0.00612,5553
0.442,176
0.02,4828
-0.00486,5579
-0.0296,6395
0.0937,2452
-0.232,7372
0.077,578
-0.0888,10148
-0.209,10334
-0.165,9164
-0.326,6089
-0.0492,6319
0.084,1156
-0.0509,8565
-1.2,10395
-0.382,6614
0.00527,5052
-0.0246,6385
0.0836,3418
0.0453,4192
-0.0796,6502
-0.353,10592
0.0155,4764
-0.164,9525
0.131,2652
-0.00561,5013
-0.0522,6579
0.351,608
0.0311,4337
0.122,1245
-0.06,7389
-0.286,10394
0.159,2939
0.333,1514
0.222,1613
0.368,264
-0.00624,5524
0.098,2376
0.0263,4739
0.298,2337
0.201,2594
0.0784,2980
0.22,1222
-0.19,10394
-0.111,8777
0.4,258
0.193,3421
-0.195,9391
0.15,1302
-0.0693,7219
-0.000427,5382
-0.316,10993
-0.0499,5422
0.0442,3871
-0.00122,5330
-0.0187,5777
-0.2,10126
-0.000598,5140
0.302,248
-0.091,8945
-0.145,9093
0.0587,3745
-0.169,8450
0.041,4142
0.113,2655
-0.198,9942
-0.0492,8314
-0.138,8290
-0.123,8898
0.0124,4857
-0.148,9467
0.0702,2110
-0.192,10402
0.105,2819
0.847,1044
-0.206,10544
-0.115,7160
0.0196,4557
-0.0555,7388
-0.36,10922
-0.183,8740
-0.199,9757
0.0791,3732
-0.128,7509
0.118,1651
-0.13,7426
0.101,2741
0.356,1247
-0.441,10449
0.189,1059
-0.154,7525
-0.12,8781
0.00311,5138
-0.161,8689
-0.12,7291
-0.125,8267
-0.0874,8936
-0.00589,5487
0.00674,4816
-0.0167,5629
0.422,129
-0.0849,9214
-0.156,10301
0.0161,4823
-0.0477,5774
-0.745,8268
0.517,80
-0.133,9535
0.124,2502
-0.0113,5757
-0.121,8205
0.179,2317
0.171,2351
-0.0376,6294
-0.205,9932
-0.00755,5008
0.128,3749
-0.285,9678
-0.159,6552
-0.224,8947
0.293,2341
-0.0571,7356
0.0417,4513
-0.358,9654
-0.0112,5478
-0.00752,6129
-0.251,10322
0.153,1611
-0.0564,6033
0.0578,3672
0.601,530
0.0898,2927
0.107,1946
0.281,127
-0.375,9425
0.134,2971
-0.0558,7676
-0.0792,7580
0.237,430
-0.131,8408
-0.17,7581
0.0896,3767
-0.0518,6662
-0.0149,5605
0.167,1693
0.172,1196
0.165,2062
-0.532,10916
-0.211,8526
-0.0358,6567
0.121,2857
-0.425,10985
-0.4,10902
0.306,2074
-0.0238,6157
0.279,475
0.128,1176
-0.34,10061
-0.0392,6860
-0.231,9823
0.262,1179
0.0209,4937
0.0589,2928
-0.000965,5231
-0.000248,4828
-0.196,10047
0.0115,4773
-0.188,9796
0.0405,4385
-0.0364,6064
-0.81,9336
-0.466,10697
-0.117,9067
0.0522,3251
0.25,987
0.966,804
-0.0224,5784
0.0951,2244
0.0507,3816
-0.208,10539
0.0854,2620
-0.245,7801
0.129,3491
-0.0798,7739
-0.203,10247
-0.255,10420
0.0553,3879
0.27,1316
-0.222,9371
-0.0945,9196
0.598,325
-0.102,7742
-0.211,10176
0.18,3155
-0.168,9302
-0.0491,7229
-0.0553,7373
-0.004,5632
-0.216,9922
0.33,1079
0.214,2004
-0.104,7573
0.06,3570
0.15,2396
-0.215,10462
0.105,3615
-0.0088,5550
-0.00998,5591
0.116,2397
-0.11,7163
0.0722,3613
0.113,3215
0.0127,4899
0.0536,3634
0.137,1259
-0.128,7824
0.266,2643
-0.717,11008
-0.0729,6569
0.0144,4986
-0.123,9308
-0.056,6793
-0.0166,5394
-0.0799,7543
-0.293,9606
-0.00864,5805
-0.0884,7161
0.0268,4614
0.0451,3808
0.145,2033
-0.0825,7525
-0.131,8837
0.141,2046
-0.313,10845
-0.0376,5919
-0.169,8969
0.191,1790
0.377,12
0.0763,1883
0.214,1874
-0.0504,6653
-0.0331,5957
-0.447,10952
0.0692,3487
-0.0899,7377
0.17,1211
0.18,1333
0.222,1659
0.000827,5301
-0.0254,7011
0.0557,4112
0.0821,2748
0.0664,4127
-0.132,8403
0.0883,2429
0.0195,4249
-0.0152,5641
0.229,1363
-0.291,10686
-0.26,8582
0.0788,2762
-0.0462,7093
0.0485,3611
-0.156,7743
-0.442,8384
0.397,1304
0.339,500
-0.128,9255
-0.0678,7273
-0.138,9877
0.381,773
-0.109,7204
-0.0457,6728
-0.0537,7817
0.0125,5031
0.047,4121
0.329,108
-0.319,10984
0.261,200
-0.248,10629
0.283,1329
-0.169,8824
0.258,1209
0.345,1590
-0.0529,6566
0.0641,3935
0.253,2988
0.245,1976
0.0139,4635
-0.199,7991
0.112,2681
0.0455,3959
-0.158,9441
0.0631,3678
-0.000437,5329
0.558,2413
0.0278,4159
0.4,1254
-0.03,5728
0.114,3206
-0.0604,6441
-0.342,10637
0.237,435
-0.0992,8265
0.0615,3520
0.039,4063
0.0534,4173
0.0858,2845
0.121,2471
-0.113,8407
0.23,2186
-0.13,8198
0.313,2294
-1.21,11032
0.127,1460
-0.0661,8795
-0.118,8363
0.0592,3677
-0.648,10568
0.0709,3178
-0.192,10067
0.0955,3125
-0.146,8862
0.0802,3781
-0.236,9350
-0.088,7951
0.0407,3800
-0.12,9407
-0.107,7887
-0.0222,5789
0.092,1714
0.0742,3454
-0.0432,7676
0.405,160
-0.273,9594
0.0884,3042
0.352,537
-0.0339,6295
-0.0226,6461
-0.0228,5932
-0.169,9323
0.228,555
-0.198,6390
0.269,1770
-0.0622,7957
0.219,1125
0.227,933
-0.22,8382
0.21,527
-0.331,7812
0.00545,5388
0.0294,3741
-0.208,8583
-0.0436,5802
-0.0449,5836
-0.163,8548
0.206,1841
0.103,1862
-0.00749,5462
0.381,447
-0.202,8381
0.0686,3679
-0.0125,5993
0.409,757
0.29,1070
0.142,1263
0.0451,4893
-0.0935,6802
-0.112,9136
-0.00818,5869
0.0825,3481
0.619,771
0.132,3573
0.229,3101
-0.0447,7237
0.0772,2195
0.0352,4500
0.121,2794
0.234,3090
-0.0487,6663
0.127,2147
0.0301,4087
-0.103,6760
0.116,2993
0.108,2176
-0.0277,6126
-0.0867,9354
-0.0983,8739
0.23,1835
0.0323,4504
0.11,3523
0.137,2693
-0.106,9023
0.238,1619
-0.708,11026
0.802,90
0.0325,4524
-0.0724,6385
0.0781,3914
-0.223,9758
0.00869,4849
0.0207,4324
0.102,2135
-0.00938,5531
-0.184,9335
-0.0455,6911
-0.00583,5421
-0.0519,6840
-0.249,10853
-0.102,7622
0.289,800
0.393,206
0.293,1483
0.00738,5303
-0.127,9787
0.135,1742
-0.0402,5907
-0.329,10602
0.197,1042
-0.149,9249
-0.173,9135
0.236,941
-0.738,11026
0.23,1172
-0.102,7222
-0.0783,7812
0.0356,4234
-0.373,10963
0.0225,4893
0.0186,5084
-0.01,5802
0.0221,4697
0.513,596
-0.0303,5910
-0.0613,6853
-0.125,7740
0.369,1349
0.0558,4112
0.121,927
0.107,2906
0.123,2038
0.233,1852
-0.546,10965
-0.0336,6549
0.107,2149
0.134,2688
0.0143,4978
0.158,2988
-0.416,10349
0.052,3244
-0.158,9641
0.0296,3956
-0.137,7295
-0.0109,5240
0.174,2874
0.18,1712
0.0577,3224
0.196,656
-0.0372,6992
-0.126,8099
0.0941,2232
-0.231,10684
0.0179,4755
0.132,2619
0.104,2754
0.0279,4621
-0.146,9377
0.157,692
-0.204,9908
0.137,2565
0.374,253
-0.333,10335
0.0464,4108
0.293,1272
-0.104,8503
0.142,2302
-0.24,10555
-0.0379,5734
0.32,781
0.285,1046
0.0566,3987
-0.02,5945
0.475,1001
-0.0732,5927
0.0225,4173
-0.0722,7208
-0.0313,5840
-0.0586,6502
-0.141,7869
-0.0542,7345
-0.285,10054
0.0267,4876
-0.0735,6483
-0.043,6089
-0.132,7533
0.0903,3705
-0.0758,7407
0.00366,5275
0.282,480
-0.244,9950
0.183,2521
0.139,2637
-0.00334,5313
0.197,1303
-0.265,10759
-0.105,7811
0.0028,5245
-0.0585,6750
0.172,912
0.000492,5169
-0.558,10453
0.152,2825
-0.137,8505
0.163,2002
0.0479,3022
0.377,191
-0.0542,6673
0.172,1655
0.312,532
0.232,1494
-0.31,10158
0.0907,2648
0.156,1661
0.0962,3237
-0.267,10247
0.156,2194
0.0768,3816
0.0934,2951
0.0231,4593
-0.0288,5895
0.0942,3699
0.981,738
-0.159,10140
-0.0854,9546
0.172,1345
-0.0916,6999
-0.0565,7176
0.582,2083
0.0942,1841
0.144,1106
-0.0497,6515
0.358,1156
0.0479,4523
-0.156,8447
-0.12,8470
0.142,2238
-0.2,9350
-0.326,10685
0.0709,3097
1.33,594
-0.0848,7241
-0.0626,7094
0.121,2518
-0.0831,7050
0.393,656
0.197,2607
0.207,87
0.0601,3543
-0.221,10367
0.0637,3575
0.258,614
-0.577,10616
0.155,972
0.153,2854
-0.309,7360
0.0696,3396
-0.268,10482
-0.0451,6835
0.0408,3699
-0.0922,9199
-0.237,9498
-0.0883,7810
-0.0562,6838
0.0833,3490
-0.0629,7793
0.0208,4294
0.0745,3362
-0.0763,7045
0.112,3290
-0.604,10781
-0.0962,7290
-0.0142,5804
-0.216,9494
0.238,2500
0.165,1860
0.393,328
0.0405,3831
-0.00526,5727
0.0583,4056
-0.14,8917
-0.322,9028
0.0064,5167
-0.0186,6656
0.197,626
-0.356,10555
0.487,114
-0.445,10465
-0.104,7027
-0.0935,8282
-0.0761,8533
-0.175,9983
0.329,633
0.565,150
-0.00718,5639
0.034,3869
0.0379,3743
-0.335,9236
-0.0589,7468
0.202,1953
0.164,3461
-0.201,10224
0.126,2366
-0.302,10286
0.463,1066
-0.289,9885
-0.289,8468
-0.21,10002
-0.0513,6764
-0.0588,6463
-0.259,9587
0.0524,3801
-0.203,7978
0.0258,4748
0.0291,3682
0.822,13
0.207,1300
-0.923,10984
0.298,1227
-0.127,10100
0.164,1240
-0.025,5424
-0.508,10904
0.258,2811
-0.294,9718
-0.0744,7020
-0.377,10279
0.188,1138
-0.124,9076
0.0371,4051
-0.178,8089
0.0477,3227
-0.162,9321
-0.0321,6035
-0.19,9735
1.62,525
0.562,1680
-0.0133,5679
-0.049,6863
-0.21,10525
-0.0816,6337
0.0915,3312
0.717,622
0.302,630
-0.189,9644
-0.161,8964
0.5,2285
0.356,368
0.119,3348
0.135,635
-0.0148,5617
0.202,1479
-0.281,9890
0.251,713
-0.256,9260
0.144,1598
0.0523,4130
0.096,3292
-0.422,10944
-0.0477,6490
-0.207,8196
-0.158,10296
0.269,734
-0.0935,7850
0.159,2139
0.182,2536
0.225,1854
0.0366,4052
0.0104,5128
-0.0732,7560
-0.0751,7624
0.0384,4533
0.409,452
0.0156,4960
0.076,3191
0.155,2799
-0.00901,5610
-0.0344,7138
0.625,704
-0.0885,8654
-0.0944,9679
-0.0605,7551
0.0359,4053
0.156,2267
-0.0102,5551
-0.385,10549
-0.0849,8324
-0.11,9053
-0.274,9227
-0.0191,5462
0.248,2967
-0.676,10310
0.0145,4578
-0.0166,6255
-0.238,9253
0.0884,2616
-0.129,8060
-0.315,8411
-0.0454,7039
-0.0601,9161
-0.534,10048
-0.774,10476
-0.429,8707
0.471,790
0.833,215
0.0254,4403
-0.0175,5534
-0.183,8759
-0.19,10100
0.0327,3617
0.194,821
0.0447,4206
-0.46,10847
0.014,4659
0.203,1748
0.00501,5123
0.0771,2332
-0.00211,5133
0.6,255
-0.0288,5366
-0.278,9680
0.0703,3402
-0.483,10985
0.149,2660
-0.0284,5563
-0.259,9794
0.347,1675
0.0407,4340
0.069,3282
0.135,1475
-0.0398,4895
0.298,1850
-0.0139,5372
0.147,2891
0.11,1721
0.0545,3445
-0.322,8157
-0.695,10726
-0.625,8896
-0.261,7713
-0.109,8788
-0.00103,3895
0.271,2616
0.0969,3775
-0.00637,5730
-0.108,6672
0.127,2795
0.213,1618
0.36,392
-0.0615,6711
-0.0463,6848
0.0587,3604
-0.147,8143
0.434,173
-0.0171,6165
-0.124,7039
-0.0978,7771
-0.0189,5853
-0.0442,7319
0.612,524
0.11,1590
-0.0339,6329
0.286,1972
-0.0904,7826
0.107,1951
0.0653,3568
0.102,2629
-0.0424,6555
0.0697,2403
-0.0348,6881
-0.0197,5541
0.184,2736
-0.278,8349
-0.28,10535
-0.15,7746
0.0323,3367
-0.387,8514
0.119,3760
0.139,3327
-0.276,10143
-0.232,10316
-0.00978,5709
0.113,2540
-0.138,8737
-0.312,10765
-0.138,8558
0.00869,5091
0.32,268
-0.0456,6470
-0.0726,7081
0.186,2116
-0.218,8685
-0.104,9370
0.0572,2648
-0.391,9817
-0.465,9111
0.0226,4335
-0.0623,6983
0.261,713
0.103,2857
0.0663,4073
-0.105,8039
0.29,464
-0.0403,6409
0.152,954
-0.521,10578
0.0125,4886
0.388,1317
0.124,2825
0.101,2007
-0.125,8874
0.00501,5283
-0.147,9194
-0.0952,5896
-0.265,8888
0.098,1976
-0.168,8643
0.118,2732
0.0773,3355
0.223,1053
-0.0015,5382
-0.0396,6878
0.08,3180
0.369,1003
0.2,2240
-0.0912,7291
-0.864,10863
0.117,1582
-0.154,7988
0.132,3242
0.12,2247
-0.0114,5328
-0.1,9296
0.129,3282
0.0102,5138
0.146,2306
-0.0175,6088
0.0059,4914
-0.0539,7591
0.112,1894
-0.112,10075
-0.000865,5384
0.137,2487
-0.0794,6688
-0.511,8304
-0.0593,7286
-0.0674,7580
-0.0118,5130
0.0465,3701
-0.374,9594
0.591,998
0.0366,4346
-0.082,9855
0.518,485
0.16,1758
-0.53,11002
-0.0697,7254
-0.195,8999
-0.177,9462
0.0785,3887
0.0632,3854
-0.0702,7290
0.0126,4906
-0.119,10474
-0.116,9748
0.0784,3206
0.117,2212
0.0205,4838
0.0327,4449
0.517,1091
0.0249,4564
-0.0661,6374
-0.091,6934
-0.051,6841
-0.638,11015
-0.0416,6905
-0.075,7610
0.202,1213
-0.171,8210
0.0747,4266
0.0799,3813
-0.0799,8262
-0.311,10757
-0.313,10495
0.0396,4241
0.477,2467
-0.0866,8154
0.0948,3352
0.0382,3960
0.0226,4547
0.0709,3530
0.174,2024
0.296,2379
-0.0275,6148
0.0716,3220
0.094,2061
-0.049,6378
0.116,2881
-0.133,9103
-0.018,6155
-0.126,9962
-0.00533,5166
-0.0526,6260
-0.456,10748
0.16,2809
0.203,869
-0.12,7727
-0.178,7578
0.117,2743
-0.0198,5312
-0.419,10986
-0.0251,5989
0.0973,2646
-0.3,9918
0.347,1118
0.433,1825
-0.00381,5479
0.217,1760
-0.139,9821
-0.0738,6809
0.217,2176
0.239,3739
-0.0307,6320
0.284,1585
0.111,3027
0.128,1487
0.07,4275
-0.0516,7648
0.0369,4718
0.164,1487
-0.115,8102
0.102,3303
-0.551,10761
-0.166,7386
0.0575,3072
-0.0561,6995
-1.26,10985
-0.149,7507
0.0172,5018
0.00463,4987
0.261,430
-0.0367,6981
-0.00137,5606
-0.368,11007
0.171,1985
-0.213,10693
-0.147,9906
0.14,1685
0.0396,4227
0.019,4672
0.135,2803
-0.206,10756
-0.0797,8013
-0.0792,8559
-0.0875,6880
-0.0134,5793
0.248,2274
-0.327,9768
-0.0666,6492
-0.0105,5781
-0.164,10060
-0.337,10868
-0.0786,7325
-0.187,8549
0.271,768
0.074,1993
0.127,2775
0.207,1815
0.243,141
0.0476,3905
-0.245,10866
-0.053,7859
0.3,360
0.316,813
-0.466,10789
0.145,3489
-0.242,10534
0.00406,5068
-0.125,7206
0.0367,4381
-0.12,7487
-0.267,6758
0.116,2185
-0.0673,6928
0.0287,4730
-0.174,9195
-0.177,8819
-0.252,10768
0.0682,3848
-0.326,10710
-0.0253,5474
0.198,1503
0.656,832
0.37,1379
-0.108,8911
-0.188,11001
0.0854,2881
-0.0877,7784
-0.00948,5613
0.0198,5068
0.00186,5290
0.116,1957
0.45,271
0.169,1084
-0.457,9902
-0.15,8485
0.0145,4969
-0.162,10866
0.335,364
0.105,2373
0.155,2795
-0.0892,8312
0.00285,5144
-0.018,5669
-0.23,9101
-0.147,8027
0.187,2077
0.00605,5159
0.182,3790
-0.137,9824
-0.00408,5443
0.157,2138
0.284,1601
0.0253,4304
0.298,122
-0.0371,6215
-0.654,10696
0.211,1793
-0.351,10989
-0.033,5956
0.176,1557
-0.069,6593
0.0254,4305
-0.207,9748
0.00912,4877
-0.0195,5314
0.112,320
0.194,720
-0.17,9978
0.37,295
-0.148,7484
0.0368,4429
0.0832,3663
0.179,864
-0.013,5787
0.0307,4560
0.0527,3717
-0.034,5732
0.157,2755
-0.171,9919
-0.0825,6772
-0.258,10433
-0.138,7128
0.238,1174
0.115,2175
-0.00508,5448
0.0258,4440
0.326,647
-0.135,7682
-0.268,10759
0.0638,4298
0.0216,4482
0.136,2465
-0.0304,5860
-0.0141,5841
0.17,706
-0.055,7416
0.239,1376
0.00265,5164
0.47,1185
0.245,1702
-0.212,8727
-3.02e-05,5243
-0.323,11011
0.0923,3005
0.486,239
0.271,2430
0.222,2766
-0.0545,8203
-0.157,8527
0.319,1048
-0.146,8459
0.431,1920
0.123,2624
0.164,1142
-0.0461,7380
-0.0281,5436
-0.446,10962
-0.201,8022
0.19,2213
-0.0483,6274
0.0961,3694
-0.0132,5850
0.198,2106
-0.142,9287
0.824,158
0.0267,4000
-0.07,8634
0.0236,4929
-0.34,10298
-0.223,9066
0.0337,4680
0.102,2623
0.101,1996
0.114,2402
-0.0481,6898
0.541,267
0.0625,3769
-0.00131,5391
-0.304,10397
0.148,3110
0.0714,3205
-0.0603,6744
-0.255,9449
0.152,2080
-0.0775,10651
0.146,2272
-0.487,10943
0.199,2483
-0.0578,6868
0.0488,3392
0.195,1456
-0.688,9963
-0.104,8065
0.15,2825
-0.0402,6619
-0.104,8208
0.151,1846
-0.0934,7434
0.0922,3594
0.199,1520
0.15,1667
0.00134,5312
-0.098,10086
-0.235,8760
0.191,1144
0.442,895
0.0576,3724
-0.435,11020
-0.179,9748
-0.266,10899
-0.018,5448
-0.144,9877
0.545,931
0.0451,2674
-0.0914,8178
-0.00652,5298
0.216,1510
-0.126,8060
0.0151,5138
-0.0691,7946
0.2,636
0.0353,4601
0.0567,4311
-0.0142,5785
0.122,2523
-0.0187,6392
0.238,428
0.28,1178
0.228,564
-0.318,7246
0.139,2662
-0.105,7421
0.134,631
0.0143,4950
0.233,1204
-0.345,10839
0.253,939
0.0627,3561
-0.0327,6015
-0.181,8547
-0.308,8316
0.189,2186
0.0593,4053
0.105,2212
-0.201,9182
0.913,916
0.0383,4247
0.171,2813
-0.143,7890
0.00757,4981
0.0596,3402
-0.115,7444
0.326,208
0.0579,3843
-0.00264,5293
-0.0393,7257
0.0913,2466
-0.0538,6116
0.172,2366
0.159,2538
0.524,95
-0.121,9958
-0.103,8223
0.18,2336
0.135,2742
0.28,470
-0.0593,6274
0.00785,5184
-0.0681,7658
0.218,2742
-0.0827,6438
-0.963,9903
-0.078,6269
-0.137,9287
0.382,62
0.0322,4693
-0.068,6569
-0.0902,8406
0.0729,3976
-0.174,10082
-0.169,9777
1.17,1433
0.0765,3999
-0.0313,6664
0.0252,4862
0.0557,4106
0.461,57
-0.516,7022
-0.0434,6076
0.29,634
-0.35,8955
-0.0394,6200
0.195,508
-0.77,10644
0.0816,2827
-0.572,10852
0.161,1382
-0.299,10938
-0.0509,6984
0.0919,3721
0.0129,4567
0.236,3007
0.382,901
-0.7,11024
0.0328,4550
0.0654,3916
0.265,1732
0.368,2871
-0.0136,5662
0.0364,3747
-0.0351,5663
-0.0784,6354
0.317,2395
0.34,1286
0.00966,5057
0.165,2018
0.0479,3746
0.609,276
-0.0773,6979
0.661,1416
-0.0157,5237
-0.0679,7899
-0.0188,5671
0.0819,3781
0.0119,4976
0.93,278
0.198,1821
-0.147,10192
-0.234,10655
-0.64,10633
-0.228,9146
0.958,1196
-0.291,10048
-0.0553,6874
-0.0307,6879
-0.446,10961
-0.102,8300
-0.0401,5756
-0.0126,5720
-0.112,8522
0.0348,3790
-0.104,6804
0.034,4509
-0.000936,5260
0.106,3025
0.0679,3297
-0.173,10522
-0.0289,5795
0.238,1746
0.316,1929
0.0151,4948
-0.023,6379
-0.0164,5946
0.0123,5069
-0.523,9866
0.493,666
-0.218,9457
-0.172,9430
-0.0247,6769
-0.141,8344
0.104,3106
-0.12,8830
-0.239,9739
0.419,156
-0.159,10522
-0.219,7953
0.048,4093
-0.0167,5746
0.479,303
0.3,570
-0.0547,6709
0.00396,5357
0.09,1519
-0.137,8088
0.135,3562
-0.0193,6314
0.0539,4181
-0.188,9797
0.147,2816
-0.127,7145
-0.129,8143
0.0412,3787
-0.213,9552
-0.291,10743
0.125,3654
0.0705,3887
0.579,1795
-0.236,10320
0.122,3206
-0.315,9400
-0.356,8883
-0.104,7195
0.113,2656
0.0566,3794
-0.0894,8585
-0.000239,5578
0.0206,4762
0.128,3232
-0.0964,7303
-0.0405,6787
-0.265,10554
0.138,2345
-0.00812,5615
-0.179,7104
0.0838,3479
0.0163,4908
0.0726,3085
-0.068,6928
-0.0504,6349
-0.00642,5363
-0.384,10995
0.0748,2995
-0.138,9136
-0.138,9446
-0.455,11003
0.102,3406
0.0843,4091
-0.0503,6793
0.247,265
0.0992,3563
0.802,1246
-0.0445,6879
0.263,732
-0.454,11029
-0.0511,6215
0.136,2824
-0.104,9287
0.293,854
-0.074,7942
0.0339,4234
0.00435,5099
0.167,270
0.0341,4424
-0.142,9815
-0.199,10305
0.158,1948
0.347,1182
-0.0553,6946
0.0172,4736
-0.212,9994
0.143,2491
-0.341,10921
0.033,3869
-0.13,7020
0.416,179
-0.00794,5706
0.00985,4859
0.143,3506
-0.0483,6277
-0.292,10716
0.114,2650
-0.0481,6912
-0.815,10010
0.0256,4553
0.238,1850
0.169,1426
0.0827,2871
-0.627,10380
-0.0386,6059
-0.137,7986
-0.026,5757
0.0762,3588
0.0102,5082
0.24,1383
0.163,1695
0.18,2281
0.087,1762
0.236,1443
-0.364,10432
-1.17,10669
0.482,1255
-0.285,10615
0.0306,4375
-0.241,10282
-0.343,10961
-0.0606,6214
1.28,132
0.162,2349
0.158,1710
-0.0212,6305
-0.0956,7035
-0.00733,5640
-0.152,7149
-0.0551,7523
0.0443,3178
0.597,70
0.1,3089
-0.104,8110
-0.166,9642
0.155,1122
0.42,607
-0.185,7826
-0.21,10670
-0.018,5631
0.468,82
0.0232,4790
-0.027,6098
0.143,2672
0.0899,3443
0.887,149
0.402,1667
-0.101,8517
0.0677,2887
0.138,2119
0.272,1984
0.0506,4070
0.365,1123
-0.3,10970
0.0261,4665
0.0676,3478
-0.17,9084
0.0612,3247
-0.0961,7888
0.0514,4170
-0.0748,7055
0.0135,4982
-0.296,10738
-0.229,8129
0.189,2807
-0.0607,7514
0.0398,3315
-0.0664,6841
-0.0988,7024
-0.177,8648
-0.991,10975
-0.116,8982
-0.141,8996
0.241,1019
0.187,2452
-0.0109,5495
-0.353,10372
-0.014,6248
0.0802,3548
-0.239,10175
0.0352,4259
-0.23,10173
-0.102,9109
0.0788,3269
-0.0135,5665
0.154,3365
-0.156,7210
-0.398,9487
-0.243,9407
0.0371,4262
-0.136,9486
-0.169,8328
-0.229,10341
0.0841,3712
0.0623,4000
-0.175,9639
0.0645,3146
-0.0236,5864
-0.351,10560
0.123,4123
0.0487,4384
-0.0622,7771
0.00364,5220
0.189,1770
-0.00576,5197
1.92,356
-0.0605,6233
0.0565,2947
0.073,3529
-0.122,7969
-0.165,8847
0.252,2391
0.0291,4662
-0.173,9886
-0.0661,7031
-0.4,10273
-0.0345,6399
-0.377,10702
0.173,1372
-0.0872,8641
-0.181,10064
-0.287,9033
-0.233,10356
-0.0814,7467
0.768,815
-0.221,10823
0.197,1447
0.0818,3069
-0.0317,6140
0.0793,3663
0.273,2482
0.32,2037
0.0348,4409
-0.23,8229
0.0507,3932
0.0336,4666
-0.269,9805
-0.0229,6184
-0.199,9009
-0.123,9404
-0.238,9714
0.204,2700
-0.328,7777
0.0591,2751
0.218,509
0.0445,4531
0.0202,4869
0.337,1537
-0.207,10041
0.263,51
-0.0229,6333
0.547,14
-0.0494,6571
-0.116,6497
0.164,1181
-0.0796,7147
-0.1,7603
0.172,944
-0.296,9848
-0.187,9219
0.00912,5279
0.012,4843
-0.139,9019
0.326,1740
0.0522,3659
-0.174,9314
0.00991,4970
0.0479,4282
0.43,301
-0.392,10853
-0.0299,6192
-0.148,9048
0.0561,4495
-0.069,7553
0.552,396
0.39,283
-0.0489,7158
-0.28,10337
-0.0358,6355
-0.0174,6305
-0.0776,8665
-0.0692,6581
0.153,2376
0.35,714
-0.128,9906
-0.123,8181
-0.154,8813
0.763,2057
-0.163,8240
-0.481,10297
0.12,3354
-0.32,9620
0.131,1761
-0.00227,5250
-0.00228,5324
-0.0142,5863
-0.129,7183
0.166,1241
0.0293,3360
0.312,1955
0.0569,3822
0.69,1656
-0.0546,7047
0.0766,3330
-0.0901,8459
-0.0461,6207
0.128,2962
-0.197,9078
-0.0467,6557
0.0176,4505
0.114,2111
0.308,2256
0.333,692
-0.0558,6467
-0.926,10298
-0.297,9337
-0.117,9321
0.131,3126
-0.206,9167
1.15,1126
0.143,3028
-0.0136,5584
0.0358,3801
-0.104,8999
0.174,1164
0.179,927
-0.197,10190
-0.1,8625
-0.1,7768
0.0318,4688
0.349,1776
-0.463,10447
-0.0876,7342
-0.0313,6058
0.158,1669
-0.108,7381
-0.0611,6568
-0.106,9089
-0.0834,6775
-0.0398,6799
-0.142,9337
0.257,1308
-0.0557,7578
-0.232,8881
0.0315,4537
0.00399,5204
0.019,4551
0.478,125
0.0752,3447
0.119,2772
0.0216,4749
0.0816,2133
-0.107,9230
-0.156,9445
0.211,2435
-0.416,9600
-0.179,9186
-0.135,9977
-0.000233,5385
0.095,3490
-0.157,7764
0.289,1551
-0.0854,5093
0.0469,2685
-0.00325,5402
1.04,51
0.151,1688
0.649,1186
0.124,2601
0.0886,2267
-0.0965,9480
0.227,2091
0.0195,4444
-0.0968,5967
0.191,1885
0.0136,4872
0.0935,2117
0.254,988
-0.321,8569
0.125,2072
0.0129,4512
0.207,1317
0.117,1889
-0.313,10225
-0.0486,6116
-0.124,8375
-0.157,6812
0.0849,2890
0.276,447
-0.53,9404
-0.0494,4048
-0.231,10630
-0.0766,7209
-0.00258,4992
-0.165,6965
-0.125,7826
0.0755,2903
0.0209,4704
0.18,2322
-0.0327,5934
0.103,3914
0.0704,3950
-0.0698,8576
-0.0765,8220
-0.0285,5980
-0.127,9175
-0.301,10940
-0.103,8088
-0.213,10905
0.0494,3749
0.272,1554
0.202,2181
0.0492,4574
-0.00618,5458
0.214,1010
0.0999,1823
0.1,3615
-0.1,7595
-0.0171,5586
-0.166,8089
-0.35,10798
-0.133,8997
-0.502,9815
-0.578,10771
0.028,4723
0.116,3202
0.012,4929
-0.17,10305
0.388,2522
-0.0709,7177
-0.462,10606
0.0447,3251
0.0292,4171
-0.0916,9292
-0.611,8101
-0.584,8595
0.236,3209
-0.3,8807
-0.0857,8109
0.0725,3126
-0.787,10165
0.234,2907
1.47,1034
0.601,687
0.544,1595
-0.0211,4846
0.341,494
-0.237,9264
0.0915,2383
-0.0822,8708
0.0766,4039
-0.0153,5036
-0.0849,5177
0.331,2741
0.0578,4371
-0.274,10244
0.181,1134
-0.00562,5375
0.0669,4041
0.0227,4878
0.381,335
-0.0348,6309
0.0331,4909
-0.0617,6705
0.218,2362
0.14,668
-0.0463,7802
-0.184,8915
-0.16,9286
0.0411,4150
0.137,1709
0.0145,4907
-0.125,8699
-0.0462,7809
0.608,2102
0.228,2442
-0.00245,5422
0.194,2887
0.148,2137
-0.112,7403
0.0877,4149
0.204,2324
0.201,1844
-0.0869,6724
0.155,454
0.0864,4244
0.299,1845
1.65,1128
-0.0734,6476
0.0431,3469
-0.0278,8343
-0.175,8675
-0.0408,6362
-0.175,8066
-0.0431,6331
0.142,1452
-0.217,9570
0.111,2590
0.117,3081
0.0269,4952
-0.0387,6022
-0.115,8003
0.00274,5373
0.246,2368
-0.275,9712
0.6,427
0.0854,2616
-0.0897,8378
-0.0814,7118
-0.0189,5696
-0.102,7993
0.283,1783
0.195,2503
-0.0904,6699
-0.0441,7321
0.274,1713
-0.41,10743
-0.31,10734
-0.0406,6880
-0.0759,8703
0.144,1403
-0.652,11007
0.0644,4091
-0.0592,7258
-0.0968,5515
0.0347,3688
-0.000287,5560
-0.585,10941
0.378,755
-0.359,10670
0.0407,4427
0.0492,3955
-0.455,10796
0.298,1193
0.244,1417
0.112,3171
-0.0372,7586
0.0312,4250
-0.166,9850
0.512,1091
0.0803,3440
-0.282,10212
0.247,78
0.308,256
0.118,1426
-0.00643,5426
-0.184,8132
0.00115,5122
0.203,1444
0.275,875
-0.245,10990
0.114,1880
-0.0229,5766
-0.302,9465
0.216,1998
-0.0113,5453
-0.0844,7786
-0.0453,6516
0.288,920
0.184,2043
-0.185,9623
0.0952,2415
0.184,1279
0.457,319
0.14,2604
-0.0284,6052
-0.0569,7008
0.258,845
-0.0896,9285
0.0301,4423
0.289,729
-0.145,10022
0.00151,5270
0.141,1466
0.0669,4162
-0.0258,6044
-0.00697,5763
-0.202,5064
0.0159,4894
-0.0893,7273
0.0865,3140
0.0405,4033
-0.274,9149
0.278,1411
-0.0262,6112
0.0684,2945
0.0888,3245
-0.226,10115
0.0358,4230
-0.0583,6915
0.0388,4332
-0.0499,7268
0.147,3377
0.177,1114
0.00696,5156
-0.0373,5972
0.228,1842
0.19,402
-0.0478,6613
-0.232,9871
-0.0691,7698
-0.0876,5943
-0.0451,6794
-0.187,10462
0.413,1127
0.451,1081
-0.524,10230
0.0736,3080
-0.739,11033
0.189,1969
0.121,3394
0.16,2927
-0.38,10486
-0.186,9635
-0.0368,6463
0.203,888
0.136,2550
-0.211,10367
-0.175,9853
0.127,2225
0.0602,3891
0.0211,5063
0.383,139
0.0601,3867
-0.0182,5937
-0.235,10553
0.2,1591
0.157,1718
-0.0608,7169
0.317,788
-0.211,9836
0.0379,3410
0.0841,1132
-0.0492,6418
-0.12,8539
0.0168,5027
0.129,3914
-0.0597,7031
-0.275,10409
-0.172,7984
0.337,734
-0.156,9199
-0.0222,5436
0.279,451
-0.158,8905
0.295,995
0.278,2187
-0.627,9155
0.364,741
-0.0571,6140
-0.012,6021
0.17,1938
-0.0523,6019
-0.198,8922
0.193,1279
0.0107,5046
-0.0806,9366
0.208,2512
-0.0646,7902
0.339,579
0.00615,4920
-0.248,10891
0.0609,3699
0.0483,4173
-0.135,7925
0.0461,3648
-0.216,10146
-0.0557,7356
0.184,491
-0.0532,6443
-0.126,8564
-0.00193,5389
0.11,1746
-0.172,8307
-0.0786,7966
0.358,347
-0.122,8130
-0.425,9372
-0.379,10533
-0.106,8559
-0.124,8473
-0.315,10501
0.293,644
0.0227,4740
-0.375,10911
-0.00433,5194
-0.00794,5573
0.0117,4850
-0.513,10437
-0.11,8205
0.191,1567
-0.0352,7454
0.122,2335
-0.045,6912
0.343,733
-0.0413,6284
0.181,2420
0.187,945
-0.0441,6305
-0.193,9495
-0.00762,5687
-0.328,9250
0.239,3381
0.118,2262
0.144,966
-0.182,8990
-0.00766,5069
0.178,2480
-0.149,8455
0.15,1756
0.0198,4487
-0.14,8171
-0.00964,5554
0.26,1240
-0.0635,7330
-0.238,10340
0.187,834
-0.0134,5319
-0.187,9637
-0.108,7245
0.255,3046
0.00773,5243
0.236,1377
0.279,1422
0.0343,3932
-0.141,8943
0.00568,4842
-0.0379,7021
-0.123,9735
0.0323,4632
0.0688,3585
0.123,2836
0.135,2677
-0.000802,5445
0.00695,5031
-0.111,8710
0.103,2560
-0.227,8382
-0.115,8690
0.346,863
-0.125,7895
0.132,1825
0.678,953
-0.0798,6841
0.0214,4537
-0.0711,7949
0.0174,4748
0.134,2368
-0.855,10936
0.0739,3849
-0.0208,6734
0.0443,3896
-0.402,10986
0.107,2680
0.0271,4396
0.688,471
0.0812,2688
0.253,1490
-0.031,6324
-0.288,9407
0.311,2000
-0.257,8826
0.108,1433
0.138,1690
0.088,3552
0.115,3066
0.137,3395
0.0273,4454
0.0496,3523
0.111,2095
-0.047,6144
-0.09,7701
-0.129,7817
0.37,1519
-0.323,10174
0.131,2329
-0.141,6910
-0.164,9351
-0.483,11018
-0.884,10894
0.107,2933
0.0351,4240
0.0619,4187
0.126,2624
0.0646,3857
0.271,1671
-0.123,8853
0.0237,4643
-0.3,10833
-0.347,10581
-0.0416,6114
0.0159,4743
-0.0251,5994
-0.145,9744
0.0864,3656
-0.337,9508
-0.372,10381
0.147,2906
-0.00441,5628
0.122,1869
-0.0395,6564
0.132,2832
0.00787,4997
-0.0672,6628
0.235,1793
-0.123,9414
-0.00321,5373
-0.0287,5962
0.031,4831
-0.177,8101
-0.0326,7069
-0.0823,8926
-0.0839,7369
0.129,2017
-0.278,6633
0.415,801
0.14,3229
0.189,806
0.0142,4861
0.197,2140
0.102,3707
-0.239,9538
-0.0891,8411
-0.0814,9243
-0.238,9401
-0.252,10808
0.105,3050
0.00199,5223
0.178,1620
-0.0566,6906
1.17,1383
-0.113,7810
0.0803,4054
0.082,4300
-0.118,8508
-0.123,10058
0.299,1073
-0.0398,5940
0.13,3017
-0.592,9844
0.119,673
0.145,1614
0.327,1625
0.0155,4805
-0.104,6292
0.0859,3394
-0.224,10713
0.209,551
0.244,1329
0.35,1305
0.277,1788
-0.501,10849
-0.00426,5660
0.182,1959
-0.0365,3810
0.279,165
0.0445,3883
0.15,2545
0.161,477
0.234,87
-0.0013,5041
0.00943,5067
-0.343,9163
0.0587,3532
0.58,31
0.228,1270
0.202,2549
-0.302,10669
0.0979,2607
0.377,475
-0.0867,8315
-0.129,9011
-0.705,10267
-0.465,11034
-0.115,9157
0.232,1887
-0.12,9212
-0.0174,6655
-0.612,9294
1.2,1327
0.162,1696
-0.223,9254
-0.147,8704
-0.224,10742
-0.128,8217
0.161,2291
-0.231,9400
0.00177,5453
-0.131,10648
-0.0936,7732
-0.11,7477
0.533,1211
-0.196,8554
-0.0235,5205
0.579,148
0.255,1388
0.118,1458
0.167,1340
0.00359,5300
0.0513,3821
0.0305,3231
0.0243,4317
0.0909,3753
0.0295,4717
0.258,3048
0.145,2345
0.0137,4766
-0.102,6089
-0.0334,6076
0.376,745
-0.621,10946
0.276,1969
0.115,2904
-0.614,9935
-0.161,9437
-0.408,10768
-0.0128,5315
0.26,2711
-0.215,10015
0.0987,2064
-0.0807,7747
0.264,1211
-0.0616,7421
0.0227,5019
-0.127,8504
-0.252,10472
0.115,2532
0.0307,4706
-0.0718,6990
-0.174,8031
-0.318,6926
0.173,2960
0.188,1536
0.177,1950
-0.0142,5359
0.17,2815
0.111,1950
0.129,1269
0.0287,1637
0.6,200
-0.349,10076
-0.223,8430
-0.0737,6869
-0.197,9878
0.0672,3690
0.151,1184
-0.0831,7695
-0.196,8815
0.0785,3931
0.104,1521
-0.187,9855
-0.0485,6614
0.0449,4016
-0.118,7866
0.0538,4077
-0.0378,8010
0.105,1865
-0.0704,7047
0.163,691
0.0502,3951
0.208,2804
-0.288,10218
-0.0997,7735
-0.112,6996
0.0109,5021
0.0705,3180
0.21,1229
-0.173,9350
-0.263,10447
-0.000561,5060
-0.0154,5625
0.128,2033
0.0571,3877
-0.276,9920
0.646,918
-0.279,8276
0.00791,5167
-0.071,7303
0.000364,5437
0.284,2801
0.279,902
0.163,2997
-0.135,8301
-0.152,9778
-0.092,7663
0.0577,3154
-0.0528,7002
-0.2,9680
-0.0394,5814
-0.0524,7367
-0.00133,5476
-0.189,8549
-0.126,7946
0.0645,4301
-0.205,7380
0.00143,5294
-0.31,10990
-0.0899,7163
0.119,2603
0.0675,4543
0.0432,4249
0.268,347
0.0396,4350
-0.528,7850
0.0209,4634
-0.0653,5759
0.0673,3841
0.116,1718
0.109,2495
0.0391,4212
-0.379,10493
-0.0778,6686
-0.0271,6099
0.0794,2561
0.232,539
0.0758,3662
-0.0937,6944
-0.339,8901
0.122,1940
0.199,2211
0.189,1364
0.239,217
0.0859,1936
-0.0595,7101
-0.0984,7497
-0.132,9696
-0.103,7106
-0.0327,6196
-0.184,9343
-0.106,7833
-0.123,8053
-0.167,9170
0.0957,3844
-0.145,9306
0.29,1867
0.145,2602
-0.302,10543
-0.0196,6229
0.146,1097
-0.0835,7483
-0.108,7810
-0.149,8575
-0.0603,8047
0.226,1047
0.0896,1573
0.0423,4569
0.0966,2644
-0.0411,6307
0.0401,4543
-0.0973,7469
-0.101,7929
0.177,1903
-0.181,9022
0.0213,4905
0.0551,3988
-0.0429,7279
0.0454,4633
-0.0676,6582
0.131,1602
-0.0272,5839
0.0134,4990
-0.353,10485
0.0618,3377
0.172,2035
0.509,1074
0.323,2936
-0.0219,6232
-0.184,10497
-0.0889,7527
-0.194,9204
-0.0574,7386
-0.133,7277
-0.351,9491
0.0982,2418
0.28,56
-0.401,10553
0.5,369
-0.00476,5393
0.0659,3757
0.0266,4504
-0.327,10754
-0.0571,6944
-0.0982,7665
0.108,3108
0.0382,4590
-0.0531,7586
0.0039,5240
0.27,1247
0.0829,3077
-0.0043,5109
-0.544,10951
-0.108,7827
0.121,2066
-0.144,8475
-0.0468,6328
0.0774,3910
0.258,590
-0.416,10373
0.172,1606
0.0458,4219
0.161,2274
0.195,1440
-0.215,9362
0.118,1141
-0.143,9775
0.114,2879
0.0405,4541
-0.228,7931
0.193,1312
0.113,2031
-0.0231,5789
0.32,227
-0.282,9613
-0.103,8641
-0.232,9741
-0.0442,6197
0.0375,3897
0.168,2961
0.314,1677
-0.222,10524
-0.0234,5318
-0.0339,6752
-0.252,10982
0.165,1504
0.0449,4227
-0.0367,6711
0.0751,3173
-0.186,9755
0.176,1855
-0.246,10757
-0.307,10235
0.358,2023
0.0715,2783
0.0961,3049
0.06,3748
-0.00184,5398
-0.05,6073
0.107,3534
-0.0957,6920
-0.0397,6443
0.277,372
-0.342,10121
0.285,1166
-0.0536,7478
-0.0614,6992
-0.0355,7424
-0.0806,8860
0.249,1850
-0.373,9020
0.0955,3781
0.219,1437
-0.229,10742
0.0583,3224
0.2,1433
0.3,296
0.0171,4949
0.128,2999
-0.0406,6228
0.043,3402
0.383,475
-0.0485,6743
1.15,417
-0.0273,5629
0.121,1109
0.0677,3546
0.000958,5144
0.0593,4276
0.0154,4762
-0.132,8523
-0.0234,6058
-0.0658,6872
-0.0235,5946
-0.315,9975
0.0717,3376
0.0537,3947
0.158,930
0.107,2226
0.101,2178
-0.0535,5634
0.202,2999
0.394,282
-0.108,7982
0.0231,4706
-0.227,8809
-0.283,9556
0.068,4037
0.00788,5000
-0.0417,6525
0.28,1103
-0.486,10923
-0.268,10757
-0.112,7942
0.545,648
-0.146,10634
0.0473,2905
0.00387,4925
0.0145,4773
-0.0552,6871
0.359,89
-0.144,9424
0.305,273
0.0898,2907
-0.196,9126
-0.332,8310
0.642,601
0.0573,3886
0.0878,3048
-0.00581,5672
-0.209,9814
0.0632,3750
0.0308,4482
0.0765,2575
-0.0481,7572
-0.381,10272
0.0478,4031
0.307,1516
0.438,225
0.132,1633
0.0282,4619
0.182,1862
-0.0811,6968
0.0184,4689
-0.219,7475
0.0619,3880
-0.0285,7565
-0.174,9392
0.0177,4909
0.0769,3519
-0.451,9995
-0.23,9332
0.0434,4062
-0.453,10260
0.126,3292
-0.112,7010
0.0314,4661
0.137,1871
-0.0453,7144
-0.0686,7406
0.0195,4889
0.0713,3819
0.0974,3446
-0.165,10132
0.12,1637
-0.601,10901
-0.129,7888
0.457,853
-0.00194,5357
-0.196,10403
0.0356,4326
-0.135,8200
-0.126,8231
-0.241,9811
0.262,2947
0.287,1107
0.0702,2954
-0.236,10450
-0.141,7640
-0.086,7874
-0.0239,7496
0.0155,5042
0.12,1493
0.0176,4616
-0.394,10079
-0.288,10390
0.0583,3272
0.182,2177
0.225,1176
0.3,827
-0.143,9208
-0.507,10831
-0.297,8933
-0.058,6936
0.0434,3329
0.0575,3896
0.0748,3713
0.609,587
-0.0605,6734
0.0931,3228
0.0137,4808
-0.00326,5221
0.169,2192
0.78,547
0.0879,4063
-0.28,10917
-0.101,8832
0.0576,4262
-0.0784,6418
-0.0113,5555
0.0542,3614
0.441,410
-0.0209,6030
0.0166,4753
0.23,516
-0.2,9722
-0.145,7521
0.0488,4499
-5.72e-05,5155
-0.0658,7342
0.276,1390
-0.00813,5353
0.11,2918
0.139,1275
-0.0453,6039
-0.23,8650
-0.147,7706
-0.00668,5391
0.224,635
0.182,299
-0.0125,5830
-0.192,9101
0.383,1166
-0.0448,6221
0.277,1004
-0.0379,7697
-0.0624,7592
-0.185,7600
0.341,373
0.221,1532
-0.196,9309
0.0229,4621
0.246,118
-0.13,8809
0.214,2751
-0.279,9682
0.191,1678
0.474,509
0.267,326
0.103,2713
-0.339,9569
0.0996,3624
0.0457,4265
0.0288,4576
0.142,1446
0.292,873
0.146,2145
-0.26,10115
0.111,2537
0.0784,2795
0.2,669
0.103,3390
0.0133,4867
0.272,1334
0.1,3673
0.0673,2010
0.0289,4166
0.0825,1869
-0.115,6796
-0.00559,5235
0.581,80
-0.0147,6015
0.245,1108
-0.174,8732
-0.112,8817
-0.0338,6771
-0.0735,8067
-0.222,10488
-0.145,8416
0.117,2168
-0.0262,5691
-0.0732,6262
0.0292,4322
0.105,991
-0.0684,6837
0.111,2543
0.192,1005
0.72,480
0.00403,5429
-0.254,10867
-0.0243,6087
0.166,2065
-0.439,9960
-0.409,9320
0.333,1090
0.13,1364
0.401,905
0.116,2414
0.46,580
0.132,3503
-0.0585,8518
-0.169,9932
-0.36,9845
-0.0308,6029
0.228,1373
0.0909,2735
0.209,69
-0.071,7964
-0.0166,5385
-0.294,8982
-0.549,9569
0.105,3162
0.0143,4377
-0.136,10033
0.0795,3640
-0.158,10000
0.164,3551
-0.00943,5062
0.0872,3439
0.225,780
-0.000547,5437
0.118,3015
0.193,889
-0.0588,5606
0.0942,2737
0.093,2159
0.883,6
0.133,3344
0.573,1067
-0.0106,5566
-0.0928,7644
-0.191,6976
-0.386,10841
-0.297,10674
0.0356,4608
-0.182,9359
0.0618,2868
0.104,2791
-0.222,10177
0.0702,3795
-0.15,8110
0.188,2217
0.18,1917
0.0855,2521
-0.0797,8332
-0.0367,5291
0.225,3293
0.104,3760
0.143,1526
0.0905,1433
0.18,1595
-0.13,7131
0.453,992
-0.048,6728
0.593,260
0.138,2365
0.166,1789
-0.145,9113
0.00321,5226
0.0363,4335
0.165,546
-0.0266,6804
1.62,850
-0.916,10003
0.139,2213
-0.202,9074
-0.19,9878
0.00711,4694
-0.279,8327
0.0665,4304
0.332,1355
-0.239,8389
-0.107,9041
0.033,4578
-0.16,7931
0.186,2500
-0.0303,5383
-0.0203,5564
0.0605,3882
-0.326,10432
-0.0846,8709
0.223,625
0.0996,2285
-0.0231,5966
-0.0655,7495
-0.111,9224
-0.46,10753
-0.0411,5352
0.316,1346
0.123,3357
0.0542,3654
-0.307,10765
-0.0801,7070
0.341,1033
0.204,2410
-0.187,8884
-0.0186,6612
-0.0765,7370
-0.133,7718
-0.182,9794
0.579,1844
-0.195,9686
0.0889,3267
0.0975,3312
0.117,2996
0.00233,5349
0.0847,4030
-0.00418,5129
0.135,902
0.343,71
0.057,4170
0.561,406
0.127,2038
0.781,355
-0.092,8860
0.0488,4000
0.234,1724
0.156,1932
-0.213,9509
-0.733,10068
-0.149,9664
0.01,5244
-0.51,10767
0.137,2060
-0.287,10342
0.187,2368
-0.0445,7359
0.256,551
-0.0787,7516
0.0769,3971
0.419,411
-0.292,8809
0.248,1648
-0.108,7542
0.0251,4598
0.669,1754
-0.146,7760
-0.413,7175
0.153,2236
-0.0214,6640
-1.62,10906
-0.141,7323
-0.074,9171
-0.0757,6269
-0.13,9686
0.102,1827
0.0647,3676
-0.0441,5642
0.16,2386
0.0543,4234
0.00584,5147
0.0503,3842
0.128,1528
0.255,2207
-0.077,6959
-0.0952,6809
-0.195,9654
-0.206,10472
-0.51,10903
-0.114,6929
0.02,4849
0.13,2991
-0.121,7994
-0.121,9877
0.177,2625
0.184,1778
0.104,3842
0.357,2479
0.00508,5544
-0.095,9676
0.0334,4174
-0.113,7535
-0.216,8310
-0.0994,7327
0.0907,2514
0.0167,4981
0.631,159
0.0931,3739
-0.395,10498
-0.175,10012
-0.0595,7174
0.249,734
-0.196,10250
-0.0995,9429
0.0805,3785
0.127,1854
0.241,785
-0.11,8690
0.121,2970
0.0718,4034
-0.174,8312
0.267,1523
-0.193,10284
-0.177,9179
0.131,2204
-0.0105,5698
-0.12,6930
0.0985,2889
-0.106,9254
-0.0757,7729
-0.296,10831
-0.284,10787
-0.209,10324
0.616,739
0.138,1025
-0.198,9353
-0.000362,5148
-0.0559,6998
0.159,3059
-0.215,8082
0.061,2981
-0.16,9744
-0.00916,5655
0.718,120
-0.136,7316
-0.103,8011
-0.0888,7374
-0.0446,7292
-0.0107,5884
-0.0168,5562
0.121,3805
-0.0821,8002
0.0617,2699
0.0585,3205
0.148,2130
-0.15,7678
-0.22,9191
-0.577,10212
0.181,367
0.0852,3827
-0.361,10250
0.174,2451
0.0715,2884
0.062,3179
0.0395,4356
-0.0783,8180
-0.014,5807
-0.0247,6041
-0.306,9741
-0.204,9320
-0.0456,6293
0.228,1937
0.32,1582
-0.34,9959
0.242,668
-0.128,8861
-0.213,9430
-0.73,10843
0.0981,833
0.0225,4999
-0.186,10073
-0.00268,5754
0.123,2801
0.176,1322
-0.231,9339
0.295,429
0.0141,4744
-0.0445,6425
0.147,2238
-0.00227,5719
-0.0449,5505
-0.0669,7332
0.328,520
0.088,2408
0.524,940
-0.00121,5255
-0.0626,6420
0.53,74
0.192,375
0.071,2857
0.236,1547
-0.267,10790
0.0161,4850
0.109,1292
-0.0534,7404
0.254,700
0.186,1143
-0.0757,6991
-0.0345,7021
0.023,4522
-0.351,11015
0.0486,4231
-0.0914,8097
0.0877,3362
0.101,3914
0.196,1638
0.177,181
-0.06,7043
0.102,1363
0.212,2335
-0.0186,5599
0.117,1242
-0.183,10661
0.0778,3450
-0.16,7280
-0.0893,6551
0.177,1890
0.234,817
-0.142,10153
-0.18,9665
-0.2,9490
-0.439,10963
0.0689,3614
-0.194,10523
-0.0321,6047
0.0992,3237
0.0616,3971
0.0293,4374
-0.367,10427
-0.0414,7828
-0.156,9688
0.0556,4145
0.103,2804
-0.0925,7555
0.273,1879
-0.0353,6796
-0.11,8293
0.0657,3481
0.124,2513
-0.255,10371
0.0865,2701
0.0582,3952
-0.238,10689
0.662,765
-0.247,10384
0.819,14
-0.544,10815
0.0925,3176
-0.281,10911
0.0808,3427
-0.106,7861
0.506,1389
-0.246,10849
0.16,2225
0.535,35
-0.143,8894
-0.0446,5712
0.0285,4530
-0.228,9921
0.0249,4419
-0.013,5632
0.279,985
-0.0963,6894
-0.0192,5998
0.21,719
-0.12,8723
0.1,3776
0.0047,5119
-0.402,10190
0.0843,3592
-0.112,7782
0.393,357
-0.259,9355
-0.0341,6450
0.0532,4001
-0.0502,5737
0.0583,2627
-0.163,8302
0.244,1851
0.0401,4543
0.0784,4006
-0.00739,5342
0.0293,4333
-0.0466,6985
-0.0757,6528
0.0946,3586
-0.217,9470
-0.135,9272
-0.602,11014
0.0318,4468
-0.301,9920
-0.0602,6503
-0.155,9258
0.267,1318
0.219,1644
-0.0677,6754
-0.115,8367
-0.726,11032
0.29,1019
-0.209,9455
0.0189,4441
0.139,2297
-0.114,8919
0.139,2099
0.13,1300
-0.0145,5831
0.0953,1989
-0.0104,5691
-0.0141,5931
-0.0675,7042
-0.0609,8583
0.341,811
0.0755,2567
0.123,868
0.0705,3529
-0.212,8781
0.0181,4704
-0.175,8739
-0.227,10094
0.0201,3987
-0.135,8696
0.245,1118
-0.0817,7763
-0.0949,6822
-0.0704,6793
-0.0382,6731
0.158,1736
-0.0124,5853
0.191,2479
0.189,1602
-0.0333,6758
0.0693,3800
-0.0303,6056
0.239,2183
-0.0537,7562
0.36,1546
0.112,1014
-0.0296,6900
0.322,1456
0.0358,4436
0.0114,5073
0.956,380
0.0296,4286
0.169,1886
0.0407,4472
0.146,2264
-0.0854,6817
-0.468,10615
-0.305,11026
0.129,2054
-0.0768,7407
-0.0431,6574
-0.0274,5627
0.0651,4514
0.0949,3280
0.0308,4357
-0.0587,7026
-0.279,10514
-0.0782,7384
0.0262,4435
0.24,801
-0.24,9789
-0.0343,6117
-0.196,10016
0.113,2681
0.641,2097
-0.127,9080
-0.135,9340
-0.0621,5580
0.228,2835
-0.022,5690
0.00232,5458
-0.213,10580
-0.125,8330
-0.117,8046
-0.263,9330
0.131,1951
-0.022,5852
-0.18,10137
0.0892,1206
-0.218,9818
0.0761,3725
0.635,17
-0.358,10700
0.0499,3273
0.00662,5239
-0.199,7162
0.256,1819
0.183,1835
0.0777,3090
-0.106,8634
0.0436,4500
0.0487,4143
0.169,1907
-0.0748,5253
0.0121,4812
0.719,571
0.032,4032
-0.0694,7431
0.0445,4255
-0.273,10587
-0.138,8637
-0.0898,8580
-0.245,8909
-0.0184,5811
-0.268,10080
-0.169,8247
-0.202,8861
0.0384,4194
0.238,631
0.293,1091
0.194,1757
-0.104,8978
0.0206,4779
0.0512,3871
0.0536,4090
0.0465,3636
0.26,506
0.216,209
-0.0137,5557
0.142,1403
0.143,1019
-0.0625,8038
0.0646,3966
0.0177,4559
-0.0321,5804
0.0985,2869
0.109,3310
0.121,2311
-0.116,8108
-0.0491,7022
-0.127,8639
0.0868,2366
-0.0421,7413
-0.181,9478
0.0393,4330
0.0506,4581
0.345,2122
0.00525,4993
-0.0721,9282
-0.111,8181
0.138,2723
0.115,2521
-0.433,10637
-0.0965,8684
-0.081,7376
0.291,1614
0.0783,3935
-0.141,8169
0.161,2619
-0.168,8642
-0.0209,5971
0.135,3716
-0.194,6665
0.0746,3742
-0.185,5918
-0.144,8083
-0.322,9818
0.237,1623
0.152,3412
-0.0534,7073
0.186,1689
-0.183,9135
-0.0733,6873
-0.128,7005
-0.0173,5559
0.0878,2415
0.255,894
0.014,4847
0.265,488
0.176,2385
-0.0629,7109
-0.0136,6233
0.0605,3452
0.223,1404
-0.656,10839
-0.00707,5634
0.0207,4175
0.215,1686
-0.492,10815
0.04,4183
0.33,2170
-0.336,8780
-0.0881,10616
0.0154,4596
-0.0264,5683
-0.423,10607
-0.0993,8015
0.104,3444
0.318,819
0.137,1424
0.17,1323
-0.013,5402
-0.184,10320
-0.146,8012
-0.00726,5645
-0.0499,7462
-0.13,9694
0.47,83
0.157,2513
0.247,1432
-0.00181,5037
-0.295,10119
0.0432,3695
-0.171,9484
0.0923,3991
-0.109,8148
-0.0189,5752
-0.0159,5785
0.0533,3627
0.21,504
-0.0411,5882
0.12,1966
-0.145,8106
0.285,191
0.102,1376
0.0892,2848
0.0944,2404
-0.213,8267
0.03,5002
0.0232,4690
-0.205,9647
0.0898,3443
0.0501,4255
0.0389,4227
-0.123,9638
-0.153,6780
0.226,1047
-0.192,9225
-0.149,9081
0.0912,3935
-0.388,10903
-0.0988,9044
0.0821,2158
-0.0897,6736
0.138,2195
0.243,1307
0.202,340
-0.293,10798
-0.0732,8139
-0.215,10602
-0.0615,6387
-0.0343,6233
0.114,3779
0.111,3304
0.0789,3028
-0.107,7347
0.0508,4013
0.423,1671
-0.498,10207
0.0173,4985
-0.0496,7260
0.00119,5128
-0.0976,8514
-0.0989,7704
0.0751,3465
-0.351,10098
-0.0281,6448
-0.0145,5823
-0.208,9206
-0.291,10580
-0.159,8037
0.218,1661
0.265,946
-0.103,7811
0.116,2957
0.111,2646
0.127,2929
-0.0105,6202
0.0591,4523
0.0232,4716
0.00366,5177
-0.0707,6851
1.09,814
0.0703,2458
0.0257,4349
-0.24,8685
0.204,2663
-0.341,9598
1.13,632
-0.0783,7651
0.0502,3362
0.0842,3385
-0.0131,5895
0.181,2580
0.21,1197
0.141,2708
0.00112,5394
-0.154,8671
0.0767,4141
0.22,1640
0.16,1192
0.191,1827
-0.0352,5758
-0.104,8134
0.232,1951
-0.0957,7325
-0.105,8154
-0.365,10381
0.00844,4760
0.287,303
-0.182,10511
0.469,804
-0.534,10942
0.29,187
-0.0154,5786
-0.319,10653
0.0349,4044
-0.24,9723
0.0558,4260
-0.246,10120
0.0518,1510
-0.0868,8009
-0.0872,7082
-0.107,6853
-0.216,9019
-0.0219,5977
0.0454,2206
-0.104,8458
0.0481,3863
0.0952,3143
-0.313,10864
0.243,1026
0.0124,4998
-0.645,10722
-0.0493,6181
-0.0509,6209
0.0798,3726
0.0995,3725
0.013,4761
0.0856,3175
0.0905,3416
-0.311,10968
-0.179,8340
-0.00838,5468
0.0666,3232
-0.363,10895
0.283,432
0.762,492
-0.128,7845
0.0129,4729
-0.136,10661
0.0477,4426
-0.108,7732
0.0251,4446
0.19,1020
-0.0598,7966
0.196,665
-0.276,10064
-0.0601,7075
-0.0974,7062
-0.192,8376
-0.222,8635
0.0199,4654
-0.153,8994
-0.388,10365
-0.404,9016
0.0562,4247
-0.225,9825
-0.04,7101
0.198,991
-0.151,9791
-0.0566,6286
0.221,1082
0.0783,2702
0.0433,3973
-0.289,8659
-0.144,8584
0.255,1223
-0.104,7238
-0.0945,8572
-0.0464,7190
0.036,4343
-0.371,10418
-0.22,8632
-0.0117,5438
0.0489,3649
-0.0193,6224
0.0221,4708
-0.0388,5968
-0.0137,5674
-0.349,6541
-0.0126,6121
-0.224,10508
-0.945,10673
-0.0755,7359
-0.0507,6205
0.121,3384
-0.154,8575
-0.172,9955
0.137,1547
0.104,2692
-0.0367,6170
0.0508,3224
0.172,1685
0.0845,3923
0.216,1740
0.173,1687
0.115,3531
-0.167,8639
-0.133,9598
0.208,832
-0.112,7702
-0.371,11010
-0.142,7017
0.182,3042
0.316,387
0.0287,4762
-0.0888,7128
-0.137,7569
0.0532,4215
0.136,659
-0.0209,6512
0.0616,3006
-0.365,10871
0.142,2611
-0.0268,6192
-0.00505,5226
-0.0385,6456
-0.142,8776
-0.314,10990
0.484,709
0.0213,4757
0.179,1677
-0.0165,5466
-0.0539,6651
0.128,2605
0.83,1467
0.242,1123
-0.313,8103
-0.213,10458
0.211,141
0.0572,4209
0.0329,4553
-0.198,9197
0.0671,2439
0.00853,4806
0.616,1232
-0.0119,5663
0.0221,4796
3.14,336
0.148,3424
-0.13,9340
0.117,2452
-0.0381,5956
-0.171,9621
0.0545,3933
-0.0504,6199
-0.0393,6218
-0.0371,7308
0.19,1920
0.384,1591
-1.46,10998
0.0113,4930
0.135,1008
-0.0502,8135
0.4,1720
0.313,1943
-0.24,10122
-0.389,10895
0.321,133
-0.134,9809
0.125,1652
-0.0309,5883
0.549,1231
0.151,2973
0.108,1757
-0.00765,5730
-0.0234,5716
0.271,1732
-0.172,8831
-0.0488,6180
-0.124,9426
-0.094,7845
-0.121,7843
-0.0103,5799
0.0544,3350
-0.00765,5653
-0.11,8803
0.0985,2859
-0.302,9816
0.134,1535
0.178,1408
0.117,2577
-0.163,8947
0.448,630
0.0446,3998
0.109,2291
-0.048,7040
-0.275,9563
-0.0195,5523
0.178,1891
-0.0621,6618
0.0673,3359
0.0733,3557
0.588,136
0.12,2122
0.461,448
-0.158,8277
0.212,819
0.14,2309
0.141,3373
-0.245,10295
-0.0746,7371
-0.144,8404
-0.0208,6379
-0.0552,6927
-0.254,6887
0.0219,4823
0.294,1045
0.0882,3087
-0.0173,6235
0.137,1307
-0.245,8054
-0.169,7984
-0.17,10149
0.0618,4034
-0.218,9790
0.15,2504
-0.189,8073
-0.222,9294
-0.0688,7399
0.249,489
-0.0463,5995
-0.0379,7745
0.0603,3924
0.064,3352
-0.0893,7469
-0.0228,6326
-0.0803,6908
0.00421,5228
0.869,238
-0.131,6084
0.264,1952
-0.116,7575
-0.0806,7637
-0.166,10681
-0.00687,5971
0.19,370
0.0354,4493
-0.371,10491
-0.007,5741
0.0204,4114
-0.166,9191
0.162,2402
-0.266,8280
0.749,522
0.0773,3841
-0.131,6466
0.241,1212
0.0227,4711
0.143,2585
0.0253,4866
-0.173,10126
0.0104,5057
0.0564,3807
0.0688,3683
-0.122,7672
1.25,122
0.103,2890
-0.104,8325
-0.0703,7523
-0.00316,5293
0.111,3119
-0.331,10692
0.128,2874
-0.0592,7649
0.102,3613
-0.273,10619
0.388,792
-0.0204,6123
0.0658,1785
0.487,536
-0.0869,8121
-0.147,9485
0.155,1879
-0.18,8550
-0.126,10083
0.252,537
-0.627,10998
-0.128,7185
0.533,271
-0.246,7612
-0.0605,7581
0.113,3467
-0.0988,7768
0.125,1667
0.0811,3587
0.0926,3750
-0.125,9942
-0.378,10804
0.0257,4539
-0.4,10631
-0.546,10661
-0.0718,6545
0.272,557
0.173,2388
0.488,547
0.243,1153
-0.117,7013
0.208,1748
-0.0461,6322
-0.106,9247
-0.0962,8811
-0.176,9581
0.108,3093
-0.404,10402
-0.0163,5854
-0.0284,6185
-0.324,10477
-0.118,6963
-0.102,5508
0.111,3897
0.165,960
0.31,217
-0.262,10172
0.00508,4847
-0.0303,5766
0.0113,4644
0.115,1709
-0.0191,5688
0.0726,3892
0.0401,4171
-0.173,9256
-0.0746,8019
0.199,1801
-0.123,8488
0.0807,2361
-0.267,10456
0.701,69
-0.227,7908
-0.0147,5928
-0.127,8751
0.111,2842
-0.0242,5659
-0.352,10471
-0.00458,5169
0.282,202
-0.0582,8125
0.125,3046
-0.295,9552
-0.14,8019
0.145,1544
0.309,233
-0.0682,7565
0.39,248
0.0968,3295
-0.146,8973
-0.231,9786
0.102,3639
-0.244,10253
-0.0149,5946
-0.218,10769
-0.245,10092
0.021,4720
-0.0178,5967
0.118,1944
0.199,1493
-0.0781,6962
-0.0795,7951
-0.914,10557
0.0778,2969
0.0159,4828
0.218,1125
0.124,2240
-0.101,7117
0.0217,4610
-0.0199,5875
0.162,1468
0.765,2039
-0.288,9679
-0.259,10131
-0.477,10714
0.342,667
-0.284,10804
0.00414,5361
1.08,951
0.0726,3289
0.0578,3053
-0.0376,7350
-0.0812,7338
0.0246,4276
-0.0309,5990
0.48,251
-0.328,10626
0.193,1046
0.243,1975
2.13,141
-0.215,8557
0.26,2031
-0.0927,8645
-0.121,10252
0.0489,4107
0.352,588
0.219,2365
0.148,2368
-0.175,9792
-0.0808,9049
-0.469,10616
-0.234,9865
0.189,1093
0.347,1281
-0.00369,5390
0.0488,3290
-0.0833,7105
0.0789,3986
-0.339,10491
-1.64,10888
0.188,1196
-0.0267,6880
0.0408,4186
0.0377,4364
-0.0366,5929
0.0732,2676
-0.127,9328
0.0321,3961
-0.238,10361
0.222,1826
-0.158,8397
0.329,533
-0.139,8417
0.0805,1743
0.0747,3216
-0.0152,5548
-0.259,10174
-0.264,9377
0.0168,4933
-0.0237,6036
-0.14,9540
-0.341,10723
0.122,3150
0.126,1392
-0.084,8475
-0.00539,5510
-0.107,8417
-0.148,9142
0.168,1222
0.207,3003
0.141,1965
0.0521,2863
-0.0357,6121
0.146,2044
-0.00835,5499
0.446,508
-0.2,9511
-0.189,10236
-0.137,8391
0.24,1365
-0.0355,6372
0.208,2185
-0.126,7691
0.225,280
-0.221,9364
-0.597,10333
0.00555,5120
-0.186,8344
0.184,1867
-0.18,7356
-0.121,7909
-0.108,8051
-0.0305,6661
-0.041,6170
0.19,1756
0.184,1653
-0.334,9602
0.27,3084
-0.00389,5298
0.00784,5282
0.171,894
-0.0428,6839
0.752,448
0.334,2382
0.383,34
0.081,2760
-0.237,9512
0.0404,4464
-0.274,7727
0.107,3644
0.101,3697
0.0472,3978
0.00956,4963
-0.0314,5889
-0.0962,8009
0.466,531
-0.275,10191
-0.0371,5544
-0.065,7914
-0.0581,7104
0.107,3596
-0.0972,6947
-0.144,9127
-0.249,9905
0.0567,4256
-0.227,10640
-0.228,11000
-0.17,9224
0.00386,5451
0.135,2220
-0.266,10549
0.0876,3679
1.42,118
-0.257,10042
-0.245,9932
0.159,1702
0.481,91
0.0982,3297
-0.139,7946
0.838,306
-0.109,8693
-0.084,7458
0.0174,4933
-0.181,10307
0.151,1896
0.0402,4504
-0.0649,9170
0.168,1884
-0.315,9172
-0.214,7666
-0.0348,7273
-0.387,10993
-0.149,9490
-0.104,9294
0.09,2521
0.052,3742
0.267,793
-0.75,11033
-0.214,10278
0.137,562
-0.0419,5825
-0.00563,5324
-0.0442,6062
-0.143,7468
0.258,785
-0.101,7956
-0.386,10640
-0.0512,6694
0.445,550
-0.449,10522
0.00433,5002
-0.059,7008
-0.00893,5601
0.471,1157
-0.472,8896
0.274,2669
-0.0198,6018
-0.155,8192
-1.05,10421
0.742,690
-0.153,7277
-0.214,9057
0.356,369
0.0271,4236
-0.192,10479
0.118,3718
0.207,1231
0.0741,3324
0.168,576
0.0769,3302
-0.175,10305
0.206,595
0.0464,4075
-0.0497,6289
0.0635,2182
0.00419,5201
-0.131,9140
-0.213,7673
0.136,2234
-0.0281,5831
0.00949,5012
-0.102,9010
0.161,1920
0.108,1432
0.0314,4187
0.288,1637
-0.0741,7929
-0.159,9789
0.0718,3345
-0.103,7785
-0.136,7374
0.214,1130
0.0536,3430
-0.0284,6354
0.13,2994
-0.243,10535
0.529,594
-0.257,9647
-0.0642,7430
-0.336,10420
-0.0499,7470
-0.149,7473
-0.282,9880
0.0224,4463
-0.126,7125
0.243,1065
0.297,1200
0.211,708
0.494,253
0.326,1121
0.0848,2607
0.0513,3657
0.0573,3891
0.441,637
-0.19,8932
-0.116,6813
0.207,580
0.0301,4087
-0.348,10004
-0.0186,5433
0.071,4004
-0.548,10906
-0.137,8615
-0.137,8382
-0.0577,6534
-0.313,10265
-0.149,9095
0.206,2338
0.375,839
-0.0124,5368
-0.0387,6637
-0.175,9185
0.139,2773
-0.0645,5228
0.204,1102
0.138,2948
0.0618,3125
-0.0377,5825
0.517,811
0.102,2615
-0.226,9156
0.0185,4443
-0.122,6217
-0.28,9856
0.254,800
-0.236,10239
-0.112,9938
-0.0408,6422
0.328,137
-0.134,9645
-0.485,10708
0.0878,3722
-0.307,10705
0.0117,4969
0.0335,4577
0.296,1199
-0.0932,7120
-0.125,7685
0.158,1592
-0.488,10779
0.157,1401
0.0471,3576
0.0327,4324
0.0139,4854
-0.00605,5643
-0.0437,7623
-0.117,8844
0.183,2485
-0.166,7837
0.673,19
-0.137,10862
0.00727,5195
0.0471,3177
0.154,2280
0.104,3541
0.0452,4595
-0.13,6396
-0.0959,7992
-0.0818,6874
