coef,rank
-0.206,8341
-0.15,8698
0.0294,4413
0.215,2323
0.578,2013
-0.446,9049
0.223,2955
0.0986,2947
-0.269,10906
0.359,361
-0.255,10032
0.184,2255
0.0205,4611
0.0403,3697
-0.0692,7582
0.033,4690
0.379,1707
0.214,2896
-0.0554,7902
-0.0538,8479
0.102,2638
0.147,1425
0.37,1268
0.604,409
-0.218,10216
0.0856,3334
-0.195,8376
-0.177,8621
-0.14,9968
0.0576,4139
-0.0677,6849
0.256,389
0.0538,4278
0.0254,4662
-0.126,7845
-0.248,9301
-0.0184,6023
0.0227,4335
-0.199,9890
-0.134,7267
0.188,1872
0.106,3091
0.0239,4512
0.0366,3397
0.324,615
0.0909,2864
-0.239,9620
-0.107,6647
0.0297,3740
-0.00356,5566
-0.14,7954
-0.0585,7270
0.0806,3702
-0.0797,6924
0.0108,4745
-0.0205,6096
-0.166,9458
-0.0937,6541
-0.304,9037
0.154,2632
0.0655,2592
0.0354,4368
-0.322,10267
-0.291,10221
0.0349,4044
-0.0283,6623
0.221,1035
0.0331,4182
0.21,956
-0.0843,8197
-0.203,9741
1.57,24
0.15,1458
-0.196,10120
-0.00273,5549
-0.0546,6234
-0.0558,5842
-0.133,9481
-0.161,9622
-0.157,9910
-0.0753,7854
-0.299,10751
-0.472,10197
-0.0988,6628
-0.0734,8269
0.0739,3004
0.155,1979
-0.0595,6375
-0.161,8732
-0.0401,5678
0.122,1530
0.0593,2687
-0.236,9775
-0.188,9097
0.217,2085
-0.205,8703
0.206,1858
-0.178,10265
0.0839,3896
0.0949,2086
-0.147,8791
-0.0671,6833
-0.134,9465
0.266,310
-0.197,10124
-0.0329,6030
0.0555,4270
0.0715,3951
0.0596,4038
-0.228,9916
0.172,2055
-0.11,8067
-0.418,8895
0.309,1262
-0.00191,5627
0.169,498
-0.146,8085
-0.0345,6516
0.00862,5001
-0.0797,7048
0.268,789
0.0904,2086
0.0779,2707
0.0129,5007
-0.323,9901
0.0672,4242
-0.124,9520
0.104,3053
0.387,636
0.152,1942
-0.117,7677
0.234,1640
0.124,1732
0.492,18
0.191,2334
-0.0526,7168
-0.424,7027
-0.0581,5941
-0.0578,7384
0.231,546
-0.0714,6650
0.00496,5378
-0.293,9815
-0.221,9922
0.322,373
-0.308,10911
-0.0311,5578
-0.0967,7598
-0.194,10578
0.0239,4751
-0.0188,6008
-0.0406,6994
-0.389,6466
-0.186,9126
-0.172,7211
-0.332,10714
-0.0613,7509
0.178,1589
-0.232,8943
0.226,1136
-0.266,10590
0.267,420
0.0481,4313
-0.00904,5823
-0.298,10687
0.244,1119
-0.00999,5753
0.0636,3021
0.149,2517
0.225,408
-0.0136,5665
-0.368,9935
-0.00257,5301
-0.111,9078
0.0543,2378
-0.0986,8100
-0.0459,6887
0.271,1219
-0.236,7828
-0.0649,8284
0.0442,4162
0.236,1337
0.115,2632
0.345,293
-0.173,10373
0.0904,994
0.219,548
0.341,168
0.326,881
-0.138,9387
-0.222,7184
0.0319,4293
0.274,259
0.0106,4999
-0.0832,7921
-0.135,8190
-0.339,9688
0.181,1086
-0.119,7729
-0.165,8796
0.0907,2255
-0.118,7465
0.0322,4103
-0.00871,5434
-0.0848,8613
0.00106,5372
0.148,2349
-0.29,8597
0.155,2088
0.302,871
0.0673,3220
0.0446,3535
0.00501,5126
-0.155,8273
0.23,1791
0.424,253
0.12,703
0.128,1852
0.0574,3894
0.00803,5203
-0.166,7888
0.0778,3892
0.0321,4644
-0.22,10814
-0.097,9333
0.0136,4954
-0.0413,5787
0.0436,4460
0.0912,2503
-0.0331,6874
0.184,487
-0.341,10788
0.348,430
-0.0147,5741
-0.0955,6917
0.0401,3311
-0.0294,5747
0.116,2920
-0.376,10037
-0.153,8390
-0.305,10154
-0.0407,3950
-0.34,9470
-0.0368,6479
0.0113,4788
-0.0325,6204
-0.128,9408
0.554,34
0.491,155
0.0743,3404
-0.783,9516
0.169,2859
-0.0223,6224
0.0909,1970
-0.278,9175
-0.384,9972
0.478,789
0.273,2428
0.156,1696
0.321,166
0.18,1286
-0.0965,8144
-0.0494,6714
-0.134,8453
0.0676,3494
-0.18,9268
0.179,2578
0.347,228
-0.0575,7050
-0.111,7036
0.0477,4412
0.0561,2790
-0.0202,5671
-0.0846,7244
0.251,1487
0.129,2182
0.107,2649
-0.119,7393
-0.093,7546
-0.0348,6052
0.0428,4616
-0.0371,6539
0.024,4578
0.177,2416
-0.181,9201
0.456,384
0.154,2466
-0.116,8272
0.0334,4104
-0.127,8632
-0.0268,5634
-0.345,10320
-0.133,7912
-0.0905,7068
0.0479,3619
-0.208,10647
0.169,2993
-0.0745,7228
0.389,903
0.159,2727
-0.0337,6211
-0.0263,6047
-0.0848,7673
-0.216,9433
-0.363,10881
0.0763,3855
0.187,288
-0.0489,6133
-0.195,10119
-0.109,6752
0.162,2685
-0.0272,5939
0.104,1744
-0.151,9415
0.0459,4278
0.277,2244
-0.135,7685
0.218,1654
-0.0554,6105
-0.029,5546
0.222,2177
0.124,2634
-0.0106,5253
0.0237,4898
-0.00856,5667
0.0913,3057
0.0473,3870
0.0594,3593
-0.126,9809
-0.173,7642
-0.254,10980
-0.002,5466
-0.214,8922
-0.0222,5488
-0.00722,5559
-0.0611,5789
-0.151,9761
0.0966,2224
0.109,2133
0.0417,3992
0.00889,5186
-0.236,9348
0.104,1985
0.568,473
0.123,3396
0.0835,1922
0.123,1159
-0.154,8402
0.0447,3841
0.0703,3546
-0.39,7201
-0.36,8445
-0.237,4995
0.574,1836
-0.188,7493
1.77,98
0.0595,4253
-0.108,7648
0.104,2879
-0.246,10220
-0.0326,7041
0.0668,2016
-0.304,6777
-0.165,8469
-0.204,9149
-0.0621,6613
0.0138,5190
-0.0337,6933
-0.422,9937
0.118,2919
0.0743,3628
-0.179,9114
0.323,1071
-0.229,10723
0.38,311
-0.173,8000
-0.142,7488
0.395,1846
0.131,2660
-0.0103,5761
-0.291,9403
-0.0482,7760
-0.0622,6482
-0.385,9446
-0.228,10526
0.459,37
0.0504,3864
0.112,2874
1.22,103
-0.105,7322
0.163,1019
-0.316,10935
-0.147,8930
-0.0663,6076
0.00635,5189
0.146,3142
-0.0532,6603
0.178,848
-0.362,9550
-0.0854,7839
0.663,28
-0.025,5969
-0.155,9248
0.115,2274
0.112,3018
0.475,247
-0.183,8807
0.27,2595
-0.0203,7549
-0.0572,7082
-0.0693,6812
0.501,497
0.249,1356
0.00708,5050
0.112,1867
-0.00262,5539
0.0432,1149
-0.188,9424
0.794,289
-0.0713,6996
0.00924,4891
0.0468,3325
0.0996,3365
0.147,2486
-0.09,6892
0.359,1935
-0.286,10221
0.0458,3819
0.258,731
-0.343,10320
-0.331,10428
-0.245,10270
-0.0315,6299
-0.0226,6278
0.0269,4818
-0.0516,6505
0.176,2327
0.0967,2676
0.441,548
-0.0307,6603
0.0798,2248
-0.307,6027
0.232,2690
0.209,1912
0.229,2533
-0.112,9074
-0.106,7713
-0.0112,5569
-0.464,10197
0.1,3306
0.206,2600
0.0723,3378
-0.0328,5574
0.168,2937
-0.0779,7411
0.424,894
-0.205,9807
0.0398,3625
-0.0258,6728
0.221,1630
0.144,2508
-0.187,9750
0.0758,3115
0.201,456
0.628,189
-0.272,9907
-0.202,8678
0.0204,5232
-0.00579,5347
-0.068,7070
-0.0429,6780
0.421,466
-0.337,10580
-0.145,9691
0.0365,4252
-0.166,9270
0.0079,5318
-0.127,8655
-0.184,8124
-0.115,8429
0.0506,4178
-0.153,9960
0.368,1051
-0.191,10445
0.00309,5129
0.0481,4392
0.182,1292
0.0893,2699
0.146,1268
0.101,2421
0.234,541
0.0617,3839
0.48,34
-0.0175,7357
-0.112,8456
0.368,26
-0.264,8606
0.99,88
0.125,2012
-0.124,9012
0.163,989
-0.147,8638
0.205,1483
0.0718,4298
0.142,2061
0.0593,2495
0.0374,3842
-0.187,7560
-0.238,10099
-0.183,6976
0.419,398
0.21,2052
0.195,450
-0.0706,5743
-0.319,8721
0.277,2318
0.67,424
-0.132,9927
-0.0659,7759
-0.183,10332
-0.163,9967
-0.026,5574
-0.0106,5420
-0.0259,6101
-0.154,8942
-0.0242,5100
-0.0543,6079
-0.161,8057
-0.483,8985
-0.0269,6300
0.169,1628
0.138,2356
0.32,608
-0.159,9190
0.00703,5208
-0.172,10080
0.0747,2117
-0.296,6870
0.0499,4315
0.721,1217
-0.155,6197
-0.105,8543
-0.292,9839
-0.0127,5674
-0.0574,6393
0.144,2553
-0.0565,6845
0.134,1783
-0.0975,7543
0.0871,3329
0.0209,4832
-0.247,7866
-0.0591,5694
0.0506,3753
-0.163,8506
-0.133,8094
0.0563,3694
-0.21,9622
0.143,2347
-0.037,6268
0.149,2458
-0.216,10058
0.148,1498
0.0983,3210
-0.0449,6490
-0.0264,6346
-0.0839,8059
-0.14,9092
0.0699,3429
-0.25,9266
0.0416,3747
0.0941,2768
0.145,2900
-0.0303,6046
0.161,2104
-0.212,9515
0.0409,4590
-0.23,10433
0.0317,3901
-0.684,10845
0.0321,4314
-0.122,7404
-0.279,7508
-0.22,10507
0.0976,2783
0.215,2271
0.286,174
-0.0367,6718
-0.23,9803
-0.00308,5486
0.0694,3233
-0.214,10278
0.0949,2322
0.0143,4851
0.272,2122
0.0523,2802
0.0251,4775
-0.131,7570
-0.117,8308
-0.0289,5891
0.022,4798
0.374,157
-0.167,9749
0.0705,4013
-0.241,9027
-0.175,9466
-0.0121,5599
-0.107,8278
0.195,598
0.331,1436
-0.0626,8087
0.464,958
-0.0468,4989
-0.0114,5771
0.0595,3733
0.148,2459
-0.132,8715
-0.00788,5037
-0.06,6675
0.0946,2781
-0.0644,7701
-0.0143,6037
0.168,1455
0.248,873
-0.006,5576
0.242,445
-0.567,10995
0.0749,2571
0.157,2986
0.638,1356
0.0105,5238
-0.0266,6442
-0.0494,7776
-0.0983,8806
0.215,1979
0.679,35
0.102,1909
-0.0123,6124
-0.186,10120
0.353,727
0.338,963
-0.188,8337
-0.0505,6531
0.186,1751
-0.313,10024
-0.0312,6060
0.325,1288
-0.112,8339
-0.0188,6106
0.0669,3130
0.22,2728
-0.108,9106
-0.396,10118
-0.309,9988
0.0302,4335
-0.275,8735
-0.612,9577
-0.218,5092
-0.156,6989
-0.183,6785
0.275,1689
-0.285,10128
-0.0274,6544
0.0943,3158
-0.201,10436
-0.0955,10081
0.0523,4510
0.0341,4588
0.0668,4052
-0.18,10276
-0.338,10938
0.11,1996
0.192,2183
0.0781,3210
0.725,75
-0.216,10589
-0.0174,5894
0.389,276
-0.312,9431
-0.0805,6873
0.35,510
-0.389,10623
0.0432,3905
0.0824,2967
-0.29,9428
0.0322,4416
-0.00324,5523
-0.326,10273
-0.00816,5721
0.0735,3832
-0.106,7723
-0.342,8506
-0.0652,6885
-0.252,9469
0.351,153
-0.171,9597
-0.171,8319
-0.0852,6963
-0.295,10034
0.0191,4841
0.013,4933
0.03,4397
0.0808,3641
0.0439,4305
-0.0894,6843
0.0252,4839
-0.166,9301
-0.269,10662
-0.0402,6837
-0.286,10680
0.648,929
3.73,153
0.031,4490
0.127,1167
-0.0582,7588
-0.238,9826
0.183,233
-0.2,8301
-0.0324,6091
0.0633,3417
-0.356,9650
0.255,1468
-0.027,5599
0.238,1430
-0.323,10646
-0.132,9468
-0.34,10176
0.172,2776
-0.493,9365
-0.107,7020
0.0695,2715
-0.0441,6705
-0.134,8089
0.184,1278
0.394,118
-0.383,9712
0.187,1714
-0.00905,5655
-0.212,9976
0.0299,4346
-0.285,7960
-0.252,6589
0.0779,3165
0.00202,5220
-0.174,9725
0.124,2347
-0.179,9145
-0.128,7193
-0.0496,7138
-0.0736,7412
0.0156,4694
-0.0527,5930
-0.263,10438
0.0324,4283
0.0216,4868
0.0184,4452
-0.0224,5816
0.00708,4996
-0.117,9893
-0.177,9255
0.0634,4314
0.134,1254
-0.00624,5394
-0.14,8146
-0.378,10816
-0.179,7501
0.165,1944
-0.194,9051
-0.0695,6931
-0.476,10445
0.403,729
0.0425,4221
-0.0881,8532
0.195,2806
0.509,999
-0.424,10849
-0.117,7354
0.114,3213
-0.11,8838
-0.181,9108
0.187,2478
-0.0557,7715
0.197,3266
-0.323,9209
-0.137,8492
0.113,1633
-0.0468,6672
-0.0644,6493
0.0418,4213
-0.291,9392
0.0481,3767
0.0581,3595
-0.0233,7834
0.0177,2428
-0.00949,6537
-0.0211,9005
-0.0324,10217
0.916,1806
-0.214,9705
0.908,626
-0.383,7172
-0.109,4895
-0.0119,5452
0.0385,4655
-0.0224,4964
0.0541,4304
-0.125,6485
0.25,469
-0.186,8726
-0.0893,4609
-0.199,9875
-0.455,10785
-0.108,10036
0.205,1025
-0.149,8743
-0.196,8380
0.0224,4949
-0.227,7720
-0.0996,6936
-0.00461,5310
-0.197,8953
-0.345,7035
0.318,1449
0.182,2284
-0.0805,4784
0.051,4234
-0.194,10143
0.148,2825
0.243,1002
-0.091,8949
0.0417,3773
0.0868,3751
-0.178,8106
-0.133,8925
0.174,2994
-0.283,10472
-0.204,10695
-0.13,10737
0.0409,4112
0.0278,4444
0.0626,4251
0.0482,4500
-0.247,10007
0.0188,4676
-0.183,8663
-0.106,7934
0.131,2732
0.0913,2705
-0.101,8983
-0.137,8721
-0.0379,6352
0.211,559
-0.392,10398
0.211,2839
0.215,1253
0.0995,2349
-0.31,6415
0.298,220
-0.0649,6206
-0.185,8887
0.17,1407
0.0752,3458
-0.101,6650
0.124,1714
0.642,229
-0.0735,7288
-0.0935,8467
0.0386,4090
-0.175,9934
-0.00732,5386
-0.0559,6411
0.435,984
-0.0527,7661
-0.116,9418
0.356,2280
-0.0209,5575
0.156,1702
0.256,1148
-0.0959,8104
-0.109,9340
-0.396,6337
0.449,2811
0.238,477
-0.411,8807
0.0867,3050
-0.0407,7238
-0.0659,6258
0.203,892
-0.129,7555
-0.0232,6798
0.0783,3213
0.0499,3698
-0.302,7611
-0.22,6458
-0.0122,4369
0.391,732
-0.0242,5836
0.119,2792
0.141,3478
0.0283,4696
0.0552,3397
0.15,1925
0.134,2004
-0.181,9252
-0.182,9092
0.0132,5012
-0.103,8127
-0.0174,5934
-0.0994,7868
-0.116,7340
-0.00403,5252
-0.179,8321
-0.208,9380
-0.375,10860
0.235,1172
-0.341,9146
-0.117,6965
0.0523,4159
-0.0672,6328
0.101,2666
0.271,563
-0.041,6206
-0.147,9058
0.186,1834
0.00953,5191
-0.155,9814
-0.0277,7073
-0.144,8575
-0.174,9525
0.234,1348
0.116,1002
-0.214,9480
0.183,590
-0.131,5877
-0.146,7654
0.0441,4608
0.312,990
-0.104,9380
0.095,3177
-0.412,9111
-0.128,8329
0.124,2126
0.162,3161
0.108,2027
-0.232,9929
-0.0971,6480
0.0891,3415
-0.0435,6187
0.135,3176
-0.115,9999
-0.0444,6891
0.589,336
-0.0749,7806
0.171,2677
-0.245,8082
0.649,77
-0.269,9624
-0.0586,6589
0.0687,3805
-0.0194,6283
-0.0945,7222
0.718,401
0.277,1530
0.0559,4477
-0.145,9845
0.265,837
0.0443,4359
-0.0628,5878
-0.407,9629
1.31,737
-0.0103,5769
-0.0732,7588
-0.0772,5792
0.0254,4663
0.0765,4149
-0.0954,8221
0.265,168
-0.146,10259
-0.0746,9049
0.249,1672
0.11,1830
0.198,718
0.00634,5292
0.037,4098
-0.069,7054
0.212,717
0.181,2625
0.0273,4729
-0.196,9740
0.138,2409
-0.0322,6254
0.0904,3551
0.0431,4319
-0.1,7383
-0.0903,7300
0.085,2883
-0.0827,6873
-0.229,8868
0.0589,4421
0.0194,4886
-0.152,9393
-0.0341,5809
-0.208,8873
-0.0479,7006
0.0448,4387
-0.00584,5444
0.0361,2722
0.0311,4637
-0.399,8125
0.0671,4206
0.115,2692
-0.046,7082
0.0937,2876
-0.101,7044
0.147,1907
-0.224,7311
-0.214,10670
-0.133,8184
0.0056,4927
0.0931,3467
-0.298,9910
0.134,3641
0.153,3127
0.201,2492
0.121,2366
-0.0151,5651
0.0482,4305
0.00559,5161
-0.0795,6340
-0.0656,7461
0.0965,2610
0.515,1077
-0.0525,6806
-0.18,8838
-0.391,9780
0.0775,2838
-0.0985,8173
-0.17,8311
0.311,566
-0.0851,6763
-0.145,7156
-0.302,10678
0.0976,2751
0.00499,5174
0.0623,3937
-0.118,9268
-1.15,10884
-0.0689,8621
-0.0417,6907
-0.208,9151
0.366,934
0.173,2799
0.0787,3520
0.239,1420
0.481,638
0.0908,3661
-0.253,10489
0.0344,4023
-0.117,8069
0.179,837
-0.0949,8101
0.00739,4999
0.0183,4828
-0.182,8896
0.301,765
-0.165,10487
-0.294,10883
0.351,111
-0.149,8773
0.0277,4609
0.169,2426
-0.103,8316
0.212,425
0.693,823
-0.219,9372
-0.192,9436
-0.017,5456
-0.236,10288
0.0354,4404
0.499,277
0.0108,5167
-0.0821,4757
0.313,448
0.18,1757
0.365,280
0.027,4206
-0.132,7730
-0.286,10836
0.119,2667
-0.209,10470
0.152,3168
-0.302,9959
-0.249,10168
0.144,1516
-0.0492,7493
0.16,1433
-0.132,8431
0.119,3224
0.223,1200
0.0225,4577
-0.117,9282
0.133,1546
0.19,994
-0.231,9167
0.409,1651
-0.102,9429
-0.0471,7089
0.147,2462
0.0528,3584
0.0158,4907
-0.0296,5694
-0.292,9959
0.0942,2983
0.0149,4996
-0.169,8758
-0.181,7054
-0.0382,5767
0.138,1551
-0.0493,7292
-0.127,7574
-0.178,9532
0.0258,4834
-0.0864,6356
-0.00227,5287
-0.0325,6590
-0.296,10042
-0.165,8751
-0.255,9354
-0.347,8878
-0.156,8535
-0.0791,7584
-0.0161,6298
-0.179,8746
-0.00879,5612
-0.0978,6482
0.0023,5183
-0.101,7326
-0.283,10183
-0.121,6211
-0.429,8372
-0.0737,7079
-0.143,8936
0.134,1297
-0.0965,8123
-0.14,9550
0.0678,3992
-0.0347,5572
-0.0348,6678
0.231,405
-0.0507,6134
-0.112,7006
-0.122,7600
-0.171,9736
0.114,1749
-0.111,8451
0.141,3076
0.193,1529
0.295,444
-0.256,6630
-0.268,9925
0.301,1119
0.247,842
0.113,2515
-0.0733,8669
0.167,2289
0.0384,3895
0.0417,4452
0.0275,4842
-0.19,9914
0.486,2485
0.0236,4662
0.195,371
-0.0489,7070
0.0364,4087
0.0469,4121
-0.19,8653
-0.15,7517
-0.0405,6788
0.055,3685
-0.268,9381
-0.0523,6390
-0.191,9077
0.0118,5289
0.017,4762
-0.043,6844
-0.0853,6857
-0.199,8335
0.0749,3601
-0.123,9506
-0.147,8154
-0.225,9623
-0.0967,7133
-0.238,10039
0.0161,4946
-0.0312,7172
0.417,57
-0.237,9960
-0.0544,6987
-0.147,7890
0.189,901
-0.09,8368
0.289,72
-0.14,9633
-0.144,6776
0.389,245
-0.0877,7909
-0.153,9675
-0.0982,7325
0.158,3456
0.0623,4114
0.33,377
-0.232,7542
0.2,985
-0.119,8219
0.116,2332
-0.0268,6116
-0.0702,6874
-0.226,9742
-0.214,8815
-0.207,10757
-0.106,8702
0.155,2183
-0.184,7738
0.998,74
0.0823,3182
0.0591,2709
-0.283,10735
-0.278,10737
0.158,1745
-0.0908,8011
0.0397,3633
0.0166,4780
-0.227,10480
-0.363,10054
2.07,62
0.43,1647
-0.197,9239
0.107,2711
0.0209,4778
-0.0273,6530
0.313,1304
-0.0502,6281
-0.37,10609
0.207,1306
-0.0251,6005
-0.478,10621
-0.021,6134
0.238,2257
-0.0316,6524
-0.0577,7925
0.182,1060
0.0571,4195
0.134,2141
-0.176,7984
0.0691,2067
0.052,3981
-0.0806,7079
-0.159,9150
0.215,829
0.257,1770
0.012,5123
-0.297,8694
-0.063,6596
0.00194,4876
0.0574,4195
-0.247,6326
-0.223,9909
0.173,2937
0.102,2881
-0.081,7707
0.017,4886
0.102,3748
0.196,923
-0.0999,7667
-0.0268,5779
-0.159,6884
-0.0627,7538
-0.142,8306
0.0156,4630
0.016,4743
0.0366,4447
0.37,129
0.186,2653
-0.113,8394
0.0596,2313
-0.222,9336
0.379,215
0.112,3400
-0.117,8642
0.112,1789
0.148,1863
0.28,1034
-0.0596,7202
0.122,1947
-0.223,10759
-0.137,10027
-0.263,10951
0.0466,4116
-0.187,7629
0.0325,4627
-0.0787,8116
-0.249,10448
0.0966,3162
-0.107,7876
-0.305,9505
0.548,560
-0.21,8856
-0.0411,6661
0.116,2276
-0.298,10879
0.0906,2701
-0.365,9029
-0.0891,8748
0.0336,3981
0.0137,5011
0.0403,4514
-0.0464,6816
-0.0936,6132
0.297,708
-0.11,9897
0.0438,3811
-0.103,7842
-0.0683,7595
0.422,141
0.00628,5031
0.0578,3953
0.00155,5376
-0.0325,5875
-0.0384,6475
-0.282,9879
0.244,1595
0.0219,4769
-0.0366,7155
-0.0665,7480
0.397,107
-0.00568,5386
-0.0488,6438
-0.0421,6741
0.0483,3765
0.344,630
-0.0419,6387
-0.249,10024
-0.0754,6807
-0.157,10031
0.0476,4061
-0.134,8187
0.0035,5278
0.129,2059
-0.264,9545
0.457,135
0.109,2440
-0.0295,6291
-0.24,7709
0.217,739
-0.0355,6093
0.178,761
-0.449,6966
-0.172,7442
-0.396,8534
-0.774,9730
-0.153,9397
-0.154,8325
-0.0815,5705
-0.107,7844
-0.0446,6279
0.0919,3796
0.213,1019
0.0493,3393
0.163,2598
-0.0808,6384
-0.000548,5124
-0.348,10017
0.0789,2786
0.196,413
-0.144,8170
0.443,76
-0.116,7345
0.228,166
-0.258,8602
0.0434,3785
0.757,241
-0.0878,8563
-0.093,7002
-0.129,8573
0.0286,4028
-0.0524,6774
-0.0692,6956
0.24,623
-0.159,7345
-0.39,9200
-0.0681,7997
-0.0293,7056
-0.139,7791
0.155,1794
-0.295,8709
-0.181,6079
-0.0546,7421
0.329,325
0.24,1381
0.0721,3150
-0.214,9725
0.0669,3618
0.212,674
-0.00827,5973
-0.041,7271
0.33,176
0.233,765
-0.227,10630
-0.0535,8996
-0.136,9196
-0.132,7338
0.0171,4811
0.398,831
0.159,1453
0.175,721
-0.0938,8625
0.0337,4329
-0.191,8305
-0.12,9013
0.0693,4407
0.13,1268
-0.227,10278
0.0188,3419
0.694,212
0.0397,496
0.00134,5116
-0.0786,7749
-0.0421,5594
-0.183,8597
0.0961,2466
0.216,1485
-0.377,8575
0.186,1738
-0.383,10095
0.16,3089
-0.106,8990
-0.0692,6240
-0.374,10408
-0.15,8478
-0.0126,5689
0.00495,5090
-0.106,9007
0.397,48
-0.175,7138
-0.396,9653
-0.0795,6606
0.13,2423
-0.0817,7754
-0.203,10406
-0.199,10237
-0.173,8396
-0.0429,5777
-0.0797,6843
-0.0044,5596
-0.0134,5371
0.0378,4120
0.199,1394
-0.0211,5935
-0.286,9191
-0.0681,8182
0.0583,2905
0.0526,4002
-0.132,8301
-0.207,10442
-0.165,7752
-0.186,8298
0.0856,2844
-0.0736,6921
0.142,2225
-0.159,8960
-0.347,9730
0.128,1742
-0.1,8709
0.0692,3696
-0.15,7897
-0.0811,6505
-0.38,8755
-0.00525,5266
0.562,285
0.0785,3309
-0.083,7692
-0.227,7951
-0.235,10071
-0.239,10765
-0.0324,6392
-0.0993,7134
-0.11,8342
0.161,2495
-0.0679,5971
-0.0611,6947
0.0167,4288
0.0175,4782
-0.168,8578
0.249,1609
-0.324,9317
-0.0483,7071
-0.0215,5868
-0.231,10273
0.0665,3695
-0.379,10701
-0.0367,6349
-0.0178,6585
-0.097,10338
0.283,256
0.0416,4101
0.235,3044
0.189,1089
0.131,1219
0.0379,4293
-0.322,10335
-0.309,9338
-0.364,9610
-0.0554,6467
-0.294,10332
0.0314,4399
-0.0832,7381
-0.0792,8222
0.0451,4209
0.0387,4308
0.28,496
0.0033,5141
-0.268,9742
0.0785,3518
-0.0945,7568
-0.0354,6156
-0.0233,6640
-0.102,9263
-0.243,8460
0.694,456
-0.159,7412
-0.301,9981
-0.197,8450
-0.149,9721
0.0274,4551
0.265,427
-0.283,10388
-0.112,7818
-0.225,10366
-0.117,7453
-0.154,7179
-0.355,9334
-0.364,8558
-0.111,7404
-0.0921,8313
-0.0119,5561
-0.0966,6781
-0.0225,6725
-0.107,6419
-0.114,5971
0.0519,3171
0.094,2875
0.156,1632
0.0652,4374
-0.86,10792
0.11,3182
0.361,147
-0.12,9064
-0.271,9094
0.176,3518
-0.157,10268
-0.241,10900
-0.178,9495
0.0646,3453
0.242,90
-0.0624,6924
0.0208,4788
0.29,682
-0.106,8072
0.0965,2602
-0.0102,5206
0.17,1562
0.144,3163
-0.0313,5101
0.0333,4494
-0.0607,6482
0.0872,3386
-0.12,8718
0.129,3632
0.351,485
0.102,1473
-0.0872,9326
0.0211,4619
-0.258,7795
0.0904,3996
-0.398,10163
-0.047,7150
-0.0462,7180
0.509,27
-0.0902,6812
-0.0973,7469
-0.0674,7100
0.0937,2156
-0.0516,6561
0.243,1533
0.0344,4515
-0.0372,6311
-0.175,8074
-0.104,7721
0.0233,4595
-0.0687,7271
-0.319,9861
0.0664,3657
-0.0759,6835
-0.209,10152
0.198,306
-0.0295,6159
-0.152,7770
-0.362,9195
0.512,1405
-0.134,8548
-0.0884,8070
-0.0541,6222
0.398,1131
-0.0319,6563
-0.142,9537
0.0355,4271
-0.0433,7031
0.00917,5037
-0.186,8991
0.0896,3327
-0.359,10757
-0.0329,6431
0.0551,3560
0.211,1036
-0.00941,5827
0.0644,2525
1.57,3
0.00606,4928
-0.0308,6093
-0.156,8018
0.402,593
0.0912,3000
0.0495,4227
0.00992,5331
-0.252,8538
-0.0645,7012
0.0553,4118
-0.0537,6141
-0.261,9334
0.0126,4954
0.0368,4156
0.0793,2645
-0.125,8543
0.35,1022
0.0133,4788
-0.143,10424
-0.333,10202
0.165,3199
0.313,273
0.0153,5015
-0.0554,6786
0.0906,3343
0.0471,3440
-0.112,7907
-0.243,9620
0.223,1030
-0.225,10416
-0.196,9054
-0.0116,5576
0.0668,3818
-0.111,6927
-0.195,7734
-0.143,9500
-0.237,9811
-0.0321,6415
0.00514,5371
-0.166,8869
0.251,2096
0.0769,2262
0.0544,3635
-0.465,10465
0.191,476
0.372,1339
-0.158,7078
-0.185,9741
0.0884,3188
-0.0727,8776
0.158,1967
0.207,713
0.165,1480
0.0136,4905
-0.0491,7446
0.094,3548
0.243,1691
-0.308,10551
0.708,107
0.0289,4794
-0.00965,5882
-0.15,8334
-0.0669,6746
0.126,2832
-0.321,10148
-0.15,8522
0.00476,5100
-0.416,9436
0.0431,3939
0.036,4258
0.119,3188
0.0502,3488
-0.215,10606
0.0157,4830
0.0634,4241
-0.309,10013
-0.0544,6418
0.0528,3596
0.105,2900
0.0445,3371
-0.184,7595
-0.198,8427
-0.163,8359
-0.245,10381
0.0106,4982
-0.29,7339
0.0599,4123
-0.159,8006
-1.55,10752
0.358,286
0.289,2426
-0.116,8019
-0.123,6847
0.318,305
0.102,2696
0.000824,5387
0.221,457
0.213,2759
-0.258,10297
-0.0761,7228
-0.0477,7376
-0.0278,6816
-0.118,9521
0.108,3411
0.0155,4923
0.0463,4267
0.255,970
0.0304,3701
0.117,1962
-0.126,8251
0.311,2291
0.0559,4030
0.125,3345
0.0129,5042
0.201,492
-0.098,7186
0.243,1165
0.00721,5233
0.315,309
0.0376,3863
-0.294,9644
0.0475,3569
-0.139,8133
0.0494,3780
-0.177,9664
0.16,2193
-0.000936,5344
-0.226,8534
-0.0358,6294
-0.186,7771
0.0903,2362
0.208,130
0.461,206
-0.154,8792
-0.0757,6908
-0.279,9844
-0.0376,6826
0.0128,5029
-0.0436,5726
-0.192,8913
0.0259,4700
-0.439,8973
-0.0986,8891
-0.192,9068
-0.013,5722
-0.235,8823
0.385,516
0.718,937
0.0898,2676
-0.0836,7515
-0.0925,5132
0.616,2181
-0.0702,7703
-0.293,7039
0.182,323
-0.0932,8553
0.367,2733
0.142,3456
-0.0767,6870
-0.124,7572
-0.217,9356
-0.204,10612
0.267,472
0.187,2020
0.622,542
0.171,2213
0.0129,4967
-0.133,8391
-0.165,7985
-0.179,9633
-0.00874,5347
0.0523,3289
0.0434,4183
-0.0515,6365
0.259,1984
-0.142,8839
0.191,1748
-0.0201,6140
0.165,2977
-0.0559,6034
0.0672,3633
-0.205,8118
-0.0172,5624
0.608,9
-0.103,8529
-0.0809,7713
-0.206,8821
0.273,698
-0.124,8448
-0.0399,8459
0.0509,2569
0.651,349
0.0635,3752
0.0747,2590
-0.142,8400
-0.0364,6750
0.0304,4180
-0.292,7539
-0.0975,6757
0.605,1306
-0.163,9042
0.0742,3699
-0.0857,6919
-0.122,7911
-0.354,10453
-0.0937,7013
0.084,3403
0.358,99
0.146,2426
0.286,1414
0.00953,5065
-0.405,10863
-0.131,8197
-0.142,9654
0.224,1579
-0.00362,5364
0.381,181
-0.204,8804
0.15,2670
0.00723,5035
-0.128,8986
0.101,2363
-0.123,8007
-0.29,8426
-0.155,10439
-0.288,10723
-0.0945,8393
-0.129,7944
0.528,451
-0.136,8573
0.0573,4297
-0.0197,5775
-0.0757,7032
-0.0721,7359
-0.0972,8113
-0.028,6577
-0.203,9713
-0.0499,6770
-0.0995,8125
-0.183,9111
0.0933,2607
-0.112,8421
-0.168,9507
-0.0536,7871
-0.102,9043
0.0898,3534
-0.021,5482
-0.149,10425
-0.177,10117
0.0274,4636
0.137,2459
0.453,101
-0.283,10375
-0.00449,5165
0.216,2619
-0.0412,6245
0.0139,4991
-0.0304,5818
0.995,471
-0.177,8463
-0.178,8921
0.0306,4498
0.315,435
0.178,1967
-0.397,8840
0.0149,4658
0.254,1960
-0.151,8403
0.249,279
-0.0455,5597
-0.101,7968
0.211,1085
-0.0416,5478
0.086,2591
0.422,724
-0.145,8751
-0.0186,5700
-0.166,9433
0.959,24
-0.0168,6350
-0.097,8447
0.21,1996
-0.155,7730
0.374,508
0.232,363
-0.079,8853
0.0948,1542
-0.00146,5459
0.188,2039
0.00532,5191
0.00691,5122
0.125,1685
-0.348,10640
0.0363,4567
0.349,742
0.595,267
-0.116,9246
-0.195,9801
-0.211,9404
0.205,2562
-0.00558,5447
0.895,81
0.109,3116
-0.0104,6071
-0.348,10314
0.165,2073
-0.218,10535
-0.0977,8450
0.0791,3461
-0.109,9497
-0.0654,6786
-0.188,8779
0.0187,4665
0.138,3201
-0.192,7228
0.044,4001
-0.0793,8407
-0.09,8945
0.01,5111
0.138,2573
0.0646,4076
-0.00764,5528
-0.218,10270
-0.0461,6039
-0.146,8758
0.413,1019
-0.0848,6308
-0.145,9658
0.127,1859
0.0466,4630
-0.132,9184
-0.329,9860
-0.45,9667
-0.141,10322
-0.25,9551
-0.232,9756
0.231,456
0.0524,4057
-0.602,10677
-0.0336,6132
0.0269,4761
-0.254,10565
-0.162,8659
0.667,56
-0.0018,5385
-0.151,9691
-0.286,9504
0.305,1002
0.00512,5049
-0.183,7257
0.147,2983
-0.0152,6341
-0.0244,6415
-0.0927,8303
-0.0509,7095
0.23,1050
0.161,1449
0.302,707
-0.0675,8171
0.127,2362
-0.142,7884
0.0603,4338
0.178,1276
-0.0922,7766
0.00151,5108
-0.28,8654
0.168,2173
-0.129,8625
0.0915,3886
-0.0046,5791
-0.161,10184
-0.137,9888
-0.0295,6586
-0.201,10056
-0.133,8358
-0.362,10284
-0.0556,5843
-0.0472,6686
-0.31,10130
0.0961,3770
-0.0166,5518
-0.0021,5196
0.0625,1405
0.189,2094
-0.307,10266
-0.326,10566
-0.107,6994
0.112,2659
0.117,3173
-0.0215,5866
0.494,354
-0.138,8882
-0.0666,7498
0.546,4
-0.0397,7035
-0.109,8108
0.103,2463
0.316,1689
-0.171,8242
0.0189,4576
0.0142,4997
-0.128,7386
0.0342,4101
-0.0886,7205
-0.0774,9188
-0.0189,5489
0.186,467
-0.134,8829
-0.172,9373
0.568,619
0.153,3380
0.838,69
-0.451,10856
-0.253,10647
-0.026,5895
-0.283,7228
-0.237,9352
-0.0112,5393
-0.136,9141
0.0326,4418
0.182,759
0.228,511
-0.242,8482
-0.156,10757
0.079,1417
-0.222,8599
-0.183,8349
0.0102,4986
-0.17,5963
-0.0353,6944
-0.079,8396
0.41,430
-0.0523,6325
-0.215,7575
0.00107,5152
0.223,699
0.0144,4648
-0.169,9446
-0.253,10417
-0.299,8969
0.031,4577
0.0331,4237
0.182,626
0.171,1685
0.21,2106
0.182,3095
-0.06,6667
-0.122,9900
0.184,1323
-0.0168,6113
-0.111,6835
0.885,78
-0.0541,6630
-0.0835,8616
0.115,877
0.42,329
0.477,1212
0.244,1510
-0.129,7079
-0.352,10422
0.301,824
-0.0918,7307
-0.232,10302
-0.497,10790
0.371,642
0.143,1223
-0.288,9392
-0.127,7553
-0.0729,8141
0.0847,4147
0.0396,4468
-0.127,9927
0.0392,4252
-0.324,10314
-0.228,9510
0.139,2205
-0.00774,5265
0.00201,5098
0.0201,4893
-0.232,10204
0.0454,4411
-0.0447,4392
0.277,1706
-0.0376,6418
-0.167,8288
0.0544,3971
-0.0706,7025
0.177,1958
0.118,2222
-0.249,10253
0.199,959
-0.192,9827
-0.133,5730
-0.328,10213
-0.189,8820
-0.278,10532
-0.0548,8038
-0.193,8681
0.136,3022
0.253,261
0.344,886
-0.00952,6017
0.00442,5325
-0.123,6852
-0.172,9456
-0.123,7946
-0.0594,6265
0.259,1109
0.0399,4466
0.223,1817
-0.149,7596
0.251,1791
-0.147,7124
0.0972,3077
0.0613,3058
0.212,2295
-0.381,10770
0.00196,5216
-0.287,7154
0.0498,3857
0.0188,4646
0.134,2906
-0.0277,6276
0.0725,3788
0.0545,4160
-0.13,8562
0.16,1011
0.0718,3711
0.178,1309
-0.236,8124
0.0321,4363
0.0789,3074
0.00714,4965
-0.112,7538
0.0323,4655
-0.546,10862
0.018,4824
-0.0469,7024
0.0636,2635
-0.338,10479
-0.392,10376
-0.208,6542
-0.73,9920
-0.104,7539
0.0423,3852
0.845,44
0.103,2930
0.141,1986
-0.623,10797
-0.0925,8321
0.0327,4033
0.444,127
-0.0954,6714
-0.194,9814
-0.281,8968
-0.036,6931
0.13,2488
-0.0303,5224
-0.156,8610
0.54,66
0.0615,3955
-0.148,9543
-0.192,10148
0.465,35
0.317,742
0.2,2683
0.235,1197
-0.0958,9481
0.502,1630
-0.0699,8028
-0.209,9358
-0.0803,6266
0.241,2275
0.172,1299
-0.076,8269
0.204,2122
-0.108,7937
0.0234,4733
-0.159,6145
-0.0809,6662
-0.0148,5685
0.28,2112
-0.206,9381
-0.133,7260
0.0578,3971
0.0204,4887
0.14,2780
-0.176,10299
0.22,1114
-0.0488,6454
0.0277,4625
-0.153,9386
-0.0578,5843
0.0128,5063
-0.00145,5471
0.341,236
-0.0872,7093
-0.0858,8178
-0.324,10090
0.294,828
-0.408,9986
0.097,1321
0.274,905
0.144,1684
-0.00603,5226
0.0291,4599
0.015,4681
0.326,597
-0.121,8474
-0.0266,5483
0.00283,5161
0.0107,5078
-0.152,8777
-0.154,9492
-0.106,7850
-0.13,10251
0.0457,4261
0.00227,4919
-0.0759,7255
-0.0885,7984
-0.00617,5639
0.162,883
-0.178,8726
-0.337,10811
0.408,1052
-0.0394,6515
-0.344,10937
-0.135,9438
-0.078,7019
-0.082,7329
-0.00455,5130
-0.15,6830
-0.227,10333
0.0411,3913
0.0375,3986
0.135,2333
-0.276,7684
0.479,1323
0.0968,1753
0.0938,1837
-0.319,10460
0.00444,5022
-0.324,8219
0.192,1030
0.15,1645
0.119,1467
0.273,1151
0.324,1098
0.106,2104
0.0638,2776
-0.0137,6052
-0.0247,6280
0.238,730
-0.184,10175
-0.132,8666
0.215,704
-0.0363,6209
0.0238,4634
0.352,1166
-0.175,9251
0.136,3165
-0.372,10303
0.105,3067
0.506,126
0.084,3561
0.589,990
-0.571,9666
-0.305,10553
0.329,199
0.431,752
0.324,2543
-0.029,6703
-0.229,10524
-0.0171,5630
0.057,3294
-0.0117,5803
-0.134,8378
-0.234,10416
-0.204,9058
-0.0505,6507
-0.0848,7601
-0.124,7767
-0.119,7553
-0.0261,5959
-0.154,7614
-0.0753,6452
-0.0392,6024
0.102,3061
0.315,332
-0.0278,5117
-0.0325,5361
0.66,155
-0.02,5963
-0.111,8690
0.892,8
0.0246,4550
0.167,3014
0.0667,2683
-0.179,9820
0.13,735
0.153,3106
-0.0842,6853
0.0196,4358
-0.238,9428
-0.0694,7419
0.0828,3619
-0.141,7810
0.289,631
0.465,978
1,186
-0.211,10131
0.0625,3169
0.0657,3510
-0.0237,6624
0.19,647
0.221,554
0.732,211
-0.135,8882
-0.0646,7204
0.335,459
0.3,837
-0.027,5783
0.0871,3460
-0.234,9958
-0.191,8393
-0.616,9355
0.0247,4449
-0.138,8507
0.0908,3471
0.294,247
-0.0441,7206
-0.14,8991
-0.0108,5670
-0.101,7852
0.326,731
0.228,1917
-0.241,10439
-0.221,9813
-0.0642,6806
0.366,898
-0.274,10741
-0.0847,8697
0.0833,2861
-0.0857,7506
0.19,1573
0.0234,5021
0.536,187
-0.00195,5611
0.336,58
0.0291,4243
0.26,2494
-0.0126,5518
0.166,2224
-0.151,9607
0.0992,2794
-0.121,7673
-0.164,8816
-0.0528,6716
-0.021,5704
0.203,689
0.017,4870
-0.104,9683
0.027,4733
0.259,1417
-0.189,8950
-0.0687,6515
-0.00315,5393
0.0628,2806
0.266,1433
0.0752,3286
-0.0302,6396
-0.0789,6322
0.0713,2378
0.0549,3864
-0.429,10456
0.128,3646
0.00743,5200
0.0573,3478
0.0965,1023
0.0124,5054
-0.0765,7021
0.352,1181
0.176,1286
0.00889,5315
0.0308,4682
-0.112,8188
-0.538,9039
0.952,289
-0.294,7408
-0.0238,5415
-0.0593,4785
-0.0898,8007
-0.0343,5750
-0.0324,5663
3.93,122
-0.293,8793
-0.0171,5997
-0.0624,9235
0.049,4103
-0.0981,7673
0.00571,5191
0.162,2531
-0.0943,8240
0.00301,5206
-0.122,7074
0.0788,3375
-0.151,7163
0.0756,2807
-0.124,8643
0.121,2245
-0.143,7401
0.503,1027
0.461,500
-0.00162,5503
0.269,1467
0.0867,2434
-0.335,6791
0.0784,3641
-0.252,9775
0.0412,4151
-0.122,8882
0.0274,4586
-0.146,8592
-0.118,8191
-0.316,9682
-0.479,9377
-0.229,10185
-0.0977,10372
0.0495,3871
0.158,2892
-0.013,5285
0.527,458
0.0339,4131
0.0118,4459
0.0762,3693
0.283,2093
0.281,447
0.311,1408
0.153,2085
0.0549,3483
-0.128,8188
0.128,3031
-0.108,8759
-0.137,6375
-0.051,7160
0.029,4136
-0.134,7743
0.142,2161
-0.211,9161
0.351,387
-0.209,9114
0.224,2120
0.335,337
0.165,2536
-0.00838,5356
-0.839,10919
-0.224,8771
-0.0443,6800
-0.169,9110
0.178,1779
0.16,2295
0.201,2086
0.176,874
-0.0704,7962
0.297,1040
-0.0816,6879
-0.506,9816
-0.0105,5330
0.0245,4714
-0.109,9528
0.134,2304
-0.294,9132
0.316,1144
0.309,775
-0.24,9442
-0.181,7722
-0.0654,7512
0.266,1242
-0.549,9766
-0.00842,5595
-0.0928,9030
-0.106,8343
0.0927,3162
0.121,2552
-0.297,10569
0.124,2481
0.239,1159
-0.102,9038
0.0831,3668
-0.214,9445
0.645,168
0.173,2427
0.0171,4637
0.136,1284
0.722,44
-0.126,7848
0.199,3210
-0.0315,5678
-0.0986,7929
0.0251,4644
-0.189,8469
-0.0238,5912
-0.115,6629
-0.215,9540
0.0972,1201
0.0703,2834
0.14,2514
-0.403,10987
-0.134,8784
0.082,3424
0.209,1314
-0.0716,7745
0.0368,4042
-0.811,10784
0.405,1292
-0.242,9621
-0.106,8688
-0.218,10175
0.041,4221
-0.0563,6335
0.367,236
0.0203,4642
-0.086,7997
-0.155,9619
-0.12,8361
0.118,2828
0.212,1325
-0.157,7948
-0.201,10982
0.069,3759
-0.232,8994
0.0147,4739
-0.0772,6680
0.388,2051
0.321,265
-0.266,10415
0.0671,4111
0.0444,4428
-0.316,10311
-0.0971,7530
-0.121,9379
-0.0978,9038
-0.13,8685
-0.266,10093
0.155,2724
-0.144,8628
-0.125,10478
-0.0305,6142
0.0914,3552
0.15,2009
0.0747,3142
0.0221,4902
-0.355,10520
-0.0917,9314
-0.138,9096
-0.16,8137
0.229,780
0.344,872
-0.0106,5722
-0.0636,7891
-0.075,7323
-0.298,10508
-0.145,6830
-0.24,8132
-0.229,10465
-0.0169,6107
0.307,134
0.118,2470
0.00511,5131
-0.106,7568
0.0273,4262
-0.077,8533
0.257,756
0.145,2941
0.108,3265
-0.199,8972
0.00582,5311
0.00644,5281
-0.268,10163
-0.324,8934
0.0502,4073
0.227,3113
0.00379,5403
0.0405,4103
-0.0064,5483
-0.197,9504
-0.159,7698
-0.239,9818
-0.14,9277
0.0591,2925
0.105,3031
-0.354,10798
-0.0631,6550
0.0375,4198
0.0332,4649
0.197,1113
-0.0214,5665
-0.032,5536
4.23e-05,5159
-0.112,8515
-0.332,10441
0.239,973
0.169,1823
0.11,3011
-0.111,7630
-0.0459,5853
-0.00914,5726
-0.2,10398
0.534,258
-0.0474,6939
-0.0994,6189
-0.321,9408
0.343,169
0.00131,5220
0.229,2443
-0.176,9011
0.0705,3077
0.122,1410
-0.0515,7506
-0.139,9282
0.294,558
-0.0666,6873
-0.149,7513
-0.0832,10063
-0.0974,9453
-0.0925,7873
0.19,2490
-0.32,9184
0.153,2759
-0.283,8713
-0.11,9957
-0.341,10987
-0.106,8381
0.0292,4746
0.0463,4611
-0.108,9040
0.00444,5268
-0.2,10631
0.349,969
0.153,2013
0.58,419
0.367,805
-0.198,8957
0.133,947
-0.129,7118
0.0233,4598
-0.203,6858
0.0331,4061
-0.0459,7539
-0.0909,7779
-0.0557,6619
-0.3,9972
0.0965,3136
0.07,3396
-0.0787,9280
-0.0374,6678
0.00515,5051
-0.408,7686
-0.323,9174
0.00889,5043
-0.0123,5929
0.052,3718
0.131,2575
-0.0698,6230
-0.0149,5615
0.0555,4367
-0.081,8846
-0.107,7651
-0.0433,6329
-0.0468,6335
0.307,1243
0.155,1487
0.362,2562
-0.0939,8080
-0.147,7230
0.371,151
0.169,2591
-0.0852,6598
-0.162,10833
0.0252,4694
-0.283,9128
-0.414,9063
-0.308,9968
0.657,608
-0.209,10604
-0.129,9902
0.112,4221
-0.298,5739
-0.127,5874
0.151,3582
0.0056,4254
-0.00104,5585
0.138,3103
-0.13,7783
0.152,3113
-0.0216,5576
0.0872,2734
-0.313,10712
0.235,3270
-0.439,9713
1.91,139
-0.201,8268
-0.0329,6825
-0.136,9653
0.077,4306
-0.718,10188
-0.208,8107
0.681,96
-0.118,7378
-0.0544,7150
-0.154,7495
-0.142,7502
0.0694,2926
-0.311,10149
0.0485,4040
0.176,1806
0.218,3394
0.612,1031
-0.105,7365
0.183,2764
-0.122,8550
0.157,1825
0.396,1831
0.329,1191
-0.0988,7663
-0.451,8918
-0.234,9734
0.0144,5038
0.134,3709
0.385,412
0.0302,4519
0.581,1228
-0.162,10108
0.0325,4193
-0.122,7941
0.113,1911
0.0142,4910
0.0335,4375
-0.0601,7307
-0.0104,5738
-0.0746,6815
-0.144,7848
0.121,2343
-0.192,8634
0.0714,3588
-0.0989,6673
-0.21,10385
0.128,1473
0.00509,5025
0.0502,4300
-0.111,8209
0.19,1788
0.175,1268
0.0996,1648
0.139,1915
0.134,3654
0.515,1979
-0.271,8314
-0.14,6726
0.371,1235
-0.24,10436
-0.127,8257
-0.424,10368
0.0527,3964
-0.232,10195
-0.163,10619
0.199,1955
0.245,1236
-0.201,10679
0.0914,4017
0.0615,3310
0.0434,3999
-0.188,7774
0.0312,4500
-0.273,10660
-0.413,10567
-0.00722,5811
0.0484,3057
-0.0402,6424
-0.17,8908
0.343,70
0.129,2434
-0.171,9764
0.00592,5061
-0.0255,6539
-0.311,10381
-0.0735,7666
-0.275,9783
0.183,87
-0.128,8780
-0.00867,5394
-0.0398,6456
0.00302,4989
0.187,1620
-0.0706,8717
-0.0124,6890
-0.236,10364
0.276,1225
0.0673,3100
0.0624,3459
0.03,4925
-0.08,7595
-0.35,10805
-0.33,9852
0.106,3014
0.138,2516
-0.069,7469
-0.0819,6439
0.0205,4607
-0.232,8264
0.285,1396
0.119,3087
0.0604,2760
0.188,1146
-0.106,7625
-0.0616,6758
-0.133,7851
0.422,602
-0.136,8768
0.227,721
0.0658,2954
0.53,55
0.0651,3574
-0.114,9003
-0.00238,5224
-0.287,10561
0.0689,3721
-0.279,9379
-0.271,9513
0.446,1521
-0.15,10190
-0.0285,6518
0.0913,2415
0.266,529
-0.00528,5020
0.0912,2252
0.0636,2463
0.105,3142
0.182,2261
0.0986,4122
0.0037,5299
-0.0273,5936
-0.00155,5717
0.12,1625
0.0657,3531
0.0366,4521
-0.187,7496
0.0777,4270
-0.0363,6414
-0.0641,8238
1.17,26
-0.378,9847
-0.362,8454
-0.0834,5916
-0.12,7701
0.355,1170
-0.406,10816
-0.0799,7483
-0.0462,5689
-0.0092,5748
-0.128,9154
-0.112,8764
0.0419,4272
-0.13,9548
-0.414,8690
1.18,180
-0.0376,7710
-0.147,7923
0.152,986
-0.149,9085
0.286,1581
0.00394,5121
0.0936,1660
-0.0857,7701
-0.0179,5934
0.149,2418
0.167,1699
-0.0931,8158
0.361,56
0.0858,2014
-0.205,9176
-0.261,9163
0.204,2868
0.309,749
-0.0799,8433
0.16,2854
0.0928,3142
-0.0287,6580
0.147,2823
-0.408,8335
-0.0371,6823
-0.23,10986
-0.104,7353
-0.163,8791
-0.0261,6665
-0.32,10700
-0.029,6484
0.407,70
0.0753,4243
-0.176,8607
-0.181,8785
-0.102,7747
0.24,1624
0.0618,2142
0.22,977
-0.0265,6123
-0.146,8750
0.188,2507
0.111,2896
-0.132,9565
0.077,3599
-0.295,10956
-0.167,8678
-0.459,10854
-0.0137,5931
0.561,6
-0.279,10709
-0.243,9176
-0.35,10163
0.189,1139
0.112,2281
-0.09,7186
-0.133,7700
0.0419,3622
-0.182,8980
-0.226,8700
-0.451,10625
0.00893,5180
0.11,3101
0.0556,3842
-0.153,7544
0.352,358
0.38,323
0.0223,4678
0.0966,3061
0.0133,4977
0.737,400
1.06,13
-0.095,8937
0.0534,3794
-0.077,7087
-0.16,8027
-0.369,5872
0.186,381
0.0636,3388
0.145,2079
-0.0645,6777
0.111,3254
0.106,2137
-0.116,7325
0.138,1753
-0.036,6186
-0.00735,5343
0.191,1886
-0.141,10052
0.0231,4713
-0.176,8733
0.0678,2852
-0.0465,7229
0.579,2
-0.183,8693
-0.00387,5340
0.022,4272
-0.0259,5399
0.0833,3954
0.209,2120
0.342,766
-0.488,10433
-0.139,7782
0.118,855
-0.389,10852
-0.103,8029
0.026,4666
-0.249,10195
0.00509,5159
0.0911,1245
-0.116,5364
0.197,2755
-0.169,5830
-0.0156,5567
-0.236,9083
-0.253,5099
0.0508,4059
0.28,1167
-0.0194,5799
-0.078,8258
-0.11,8013
-0.115,7396
0.288,861
0.0202,4821
-0.0193,5520
-0.0322,6659
0.0081,5075
-0.0992,6849
-0.374,9946
-0.174,8793
0.0494,4032
0.213,2026
-0.318,10807
-0.0859,8527
0.0833,3192
-0.0193,5775
0.0171,4635
0.019,4572
-0.143,9478
0.0565,3052
-0.196,9939
-0.11,5549
0.206,543
-0.188,9859
0.117,3135
0.52,61
0.539,205
-0.336,9660
-0.194,9195
-0.0264,6646
0.24,1322
0.545,438
0.173,1849
-0.0965,7830
-0.182,9316
0.0092,4905
0.413,336
-0.249,8835
0.167,1668
0.0295,4068
0.0119,5001
-0.026,5519
-0.297,9293
-0.113,7096
-0.0584,5879
-0.115,8998
0.0936,3538
0.132,2087
-0.174,9423
0.14,3526
-0.144,9330
-0.0411,6421
0.328,934
0.11,2841
-0.168,9533
0.569,57
-0.00166,5456
-0.0471,7226
0.189,1083
0.368,174
-0.186,7856
0.255,1479
-0.319,10431
-0.0689,8673
-0.0372,5834
-0.0188,6369
-0.153,7978
-0.119,7747
-0.211,10629
0.0133,4685
0.147,1897
-0.101,7621
0.236,692
0.286,1077
-0.152,9440
-0.209,10651
-0.114,8832
0.318,344
-0.0869,6077
-0.0593,7005
0.0695,2099
-0.0965,8666
-0.161,8735
0.168,2642
0.276,1037
0.107,2270
0.299,176
0.0809,2306
-0.0183,5382
0.0256,4788
0.12,3357
-0.477,10605
-0.0191,5901
-0.125,8816
-0.247,9320
-0.21,9185
-0.235,10515
0.314,101
-0.117,8238
-0.188,9478
-0.111,8184
0.0751,3576
-0.177,8493
-0.0102,5932
-0.163,8989
-0.105,8067
-0.412,9626
-0.0152,5616
0.645,301
0.00953,4924
0.00937,5200
0.155,2967
0.345,1048
-0.275,9146
-0.0854,5880
-0.0631,7313
-0.0394,6554
0.382,146
-0.0483,6009
0.171,2383
0.0386,4659
0.0883,2131
0.0776,2388
-0.0823,5216
0.423,1065
-0.352,10757
0.0951,3339
-0.0803,8837
0.239,803
-0.311,10400
0.0433,4621
0.00102,5319
-0.0828,6202
-0.177,10597
-0.077,7743
-0.045,7236
-0.0162,5736
0.0498,3987
-0.222,8923
-0.175,10632
-0.0541,7617
0.0161,4876
0.041,4590
-0.0592,6808
-0.213,8286
0.248,1904
0.373,746
-0.12,7155
0.0469,3896
-0.0444,5951
-0.0875,6581
0.0966,3093
0.0846,1942
-0.0985,9118
-0.119,8943
-0.00346,5275
-0.261,9939
0.113,3260
0.0509,3775
-0.0968,8559
-0.0209,5784
0.0744,3219
-0.292,10391
0.271,637
-0.124,9679
0.506,852
-0.069,5844
-0.274,8669
-0.436,9537
-0.103,7309
-0.239,10892
-0.254,10413
-0.0116,5310
-0.123,6832
0.578,437
0.034,4390
0.0825,3167
0.104,1583
-0.0916,6655
0.138,2500
0.456,248
-0.0282,6692
-0.0903,9248
0.0782,3750
-0.133,9429
-0.0533,5816
-0.594,10954
0.0848,2663
-0.225,8940
0.177,2311
-0.00216,5082
-0.121,7560
-0.0516,6982
-0.131,9396
0.349,1759
0.0347,4417
-0.0268,6299
0.656,181
0.0276,4552
-0.267,10526
0.111,2761
0.0529,3659
-0.703,10615
-0.259,9127
0.00578,5103
-0.0365,6210
0.0595,2421
0.0133,4910
0.0405,3867
-0.179,9179
0.145,1128
-0.134,8821
-0.0343,6470
0.0225,4656
-0.0637,7927
0.193,2266
-0.148,8793
0.023,4582
-0.00773,5855
0.154,3051
-0.07,7173
0.0629,3913
0.126,3130
0.0145,4658
0.152,2200
0.0434,3744
0.346,1017
0.213,1210
0.332,348
-0.135,9750
0.0286,4388
-0.0936,7417
0.101,3710
-0.0255,6129
0.0731,3448
0.439,616
-0.0855,7972
0.407,1561
-0.178,9459
-0.0831,6912
-0.355,9202
0.0706,3329
-0.00974,6135
-0.00705,5799
0.0913,3111
-0.132,8419
-0.0337,6175
-0.0796,7571
-0.0329,6120
-0.15,9063
0.919,949
0.296,1019
0.112,2245
-0.0286,6531
0.219,849
0.0199,4781
-0.139,9390
1.29,219
-0.153,5774
0.00424,5223
0.00872,5148
0.101,3121
0.166,1947
-0.0986,6736
-0.136,8386
-0.13,7704
-0.13,8489
-0.0814,7460
-0.301,9087
-0.123,7421
0.000767,5227
-0.184,9782
-0.127,10150
-0.306,10910
-0.15,8887
-0.0163,5382
0.226,1635
0.127,2169
-0.0992,7713
0.316,776
0.09,2728
0.0963,3435
-0.0182,5985
0.0124,4975
-0.0698,7301
-0.103,8601
0.0607,3607
0.142,1968
0.256,1324
-0.00976,5782
0.00357,5278
0.338,334
0.195,1398
0.763,397
0.126,2779
0.131,3115
0.00687,5323
0.0161,4980
-0.131,9992
-0.185,9929
-0.0366,7575
0.0759,3544
0.176,422
-0.106,8011
0.0602,3364
0.134,3523
-0.0424,5928
-0.0665,7621
-0.262,10426
0.149,2703
-0.142,9452
-0.545,10109
-0.0517,6545
0.0779,3316
-0.000106,5486
-0.317,10088
-0.258,10031
0.0399,4529
-0.437,10817
-0.0514,6282
-0.0675,7820
0.00913,4635
-0.0214,4919
0.225,1551
0.217,469
0.0818,2970
-0.0188,6200
0.0481,4275
0.32,421
-0.302,9801
-0.89,10038
-0.167,9950
-0.23,10917
0.13,2171
0.276,1929
0.139,2641
0.145,2982
-0.115,8661
-0.0354,6035
-0.124,8944
0.0651,3824
0.0982,3507
-0.137,7450
0.049,2146
-0.0319,6724
-0.226,10123
0.113,3317
-0.182,9365
0.0755,4234
0.203,730
-0.272,10572
0.107,2058
0.035,4327
0.636,86
-0.0981,7142
0.0721,3779
0.176,1923
0.123,3333
0.177,1780
-0.308,10323
0.228,297
0.285,740
0.174,552
0.0843,2470
0.0869,2492
-0.019,6081
0.225,1591
0.162,1563
-0.0696,7649
0.0112,4927
-0.106,9071
-0.0923,7298
0.532,553
0.0589,1641
-0.00272,5611
-0.00638,5098
-0.161,8508
-0.00844,5425
0.131,3206
0.108,2357
-0.0809,7560
0.0255,4389
0.476,294
-0.0677,7127
-0.0717,7148
-0.117,9053
-0.0145,5887
0.087,3383
1.21,103
-0.127,8416
-0.264,8814
0.325,1199
-0.115,9826
0.165,395
0.0189,4772
0.0311,4749
0.328,2912
0.133,970
0.31,749
-0.237,9917
0.229,1590
0.42,287
0.0883,3904
-0.277,10717
-0.0683,9261
-0.191,10214
-0.0638,6568
-0.0746,7355
0.0599,3909
-0.254,10806
0.138,2162
-0.0333,6473
0.296,1337
0.224,1059
-0.0312,6454
-0.0337,6421
-0.0369,6337
0.192,1673
-0.0472,6494
0.812,328
0.0306,4436
0.314,1548
0.272,2850
0.017,4703
0.132,1293
0.0372,3958
-0.289,10146
0.179,1315
-0.0135,5103
0.22,784
0.194,1189
0.196,965
-0.106,7684
0.0427,3898
0.109,3604
0.0317,4309
-0.136,9778
0.107,3643
-0.0198,5820
0.211,1070
1.07,18
0.171,1753
0.136,900
-0.159,7724
-0.00953,5930
-0.066,7118
-0.208,7906
0.0331,2725
0.237,1257
0.478,83
-0.0172,5485
-0.132,9646
-0.157,9588
-0.01,5863
-0.167,10278
0.103,3881
-0.0348,6624
0.0108,5256
0.147,2971
-0.134,8786
0.219,586
0.0809,3056
-0.104,6231
-0.29,9941
0.182,1216
-0.311,10320
0.136,1576
-0.201,8926
0.0724,4013
-0.143,7956
0.0637,2731
-0.18,9162
-0.327,10834
0.169,2435
-0.0424,6088
-0.0411,6471
-0.0342,5941
-0.0346,6647
-0.0654,7032
0.0148,5189
0.0395,4150
0.0451,4373
-0.396,10917
-0.0483,7293
-0.0438,6869
0.104,3239
-0.323,10095
-0.276,8583
-0.488,9235
0.192,1275
-0.042,6532
0.2,784
0.776,65
-0.237,10008
0.113,2326
-0.0145,5791
-0.107,8065
0.154,2345
-0.012,5363
-0.31,10881
-0.178,10392
0.111,2800
0.239,2015
0.0446,4075
-0.116,8241
0.399,441
-0.224,10680
0.0535,3017
0.227,336
-0.065,5969
-0.173,9240
0.0772,3626
0.162,1283
-0.0738,7329
-0.0304,6419
0.422,1037
-0.276,10343
-0.375,10804
0.272,2789
0.136,1951
0.105,1474
0.463,89
0.274,920
-0.128,9834
-0.199,8503
-0.149,10011
-0.0109,5693
-0.0406,6288
-0.0649,8491
0.0998,3192
-0.34,10953
0.0106,4915
0.023,4533
-0.203,8335
0.0293,4061
-0.0631,6024
-0.0303,6585
0.106,1628
0.199,588
-0.135,8698
-0.0153,6141
-0.393,10786
0.0504,3472
0.0682,2640
0.288,320
-0.132,7040
0.0861,3377
0.0832,3591
-0.16,5884
0.244,1827
-0.061,6468
-0.091,7632
-0.365,8887
-0.287,8174
-0.063,7033
-0.273,9631
0.576,43
0.0427,3995
-0.0878,7836
-0.192,10104
0.0242,4672
-0.32,10836
0.0168,4866
0.183,3358
-0.0358,5589
-0.194,8063
0.0831,3931
0.0959,2351
-0.246,8988
0.54,222
0.0673,2787
0.12,2276
-0.156,7573
0.0104,4781
-0.122,9372
-0.129,7799
-0.136,9115
-0.0329,5933
0.0693,4323
-0.242,10480
-0.0866,7809
0.135,2935
1.17,267
0.14,3235
0.174,2103
-0.0855,8145
0.107,2728
0.344,253
0.307,655
0.218,2973
-0.187,9050
0.0512,4177
0.037,4372
0.0309,4194
-0.027,6140
-0.251,10703
-0.0665,7341
0.259,234
-0.213,9576
-0.0735,6981
-0.149,8332
-0.208,10234
-0.148,7170
-0.0195,5638
-0.239,9805
-0.00863,5624
-0.0209,6160
0.202,1912
-0.0624,6779
0.136,672
0.55,0
-0.235,9925
-0.0298,5948
-0.266,8344
0.00259,5304
-0.0141,5851
0.0166,4309
0.173,2565
-0.155,8019
0.207,2788
-0.154,8397
-0.0955,8863
0.155,1773
-0.000572,5191
0.208,1268
-0.016,6158
-0.078,7437
0.0505,3377
-0.307,10639
0.153,2459
-0.00714,5082
-0.316,8224
0.0912,3625
0.0709,3761
-0.0649,7916
0.0323,4414
0.11,3266
-0.275,10422
0.481,1134
-0.298,10727
-0.0688,8943
-0.03,6576
0.0628,3788
-0.0811,8506
-0.214,8175
0.0934,2559
0.0241,4550
-0.253,7486
0.401,1601
-0.256,7767
-0.506,10181
-0.0866,7601
-0.162,9055
0.0845,3440
0.298,357
-0.182,8102
-0.0586,7417
-0.00752,5666
0.0185,4607
-0.26,9989
-0.26,10857
-0.1,8605
-0.113,5015
-0.204,9754
-0.0349,6561
-0.0154,6060
0.0476,3288
0.00649,4878
0.0596,3593
0.0749,3516
-0.0179,5763
-0.181,9110
-0.0295,6185
-0.111,7651
-0.178,10385
0.105,1811
0.319,70
-0.136,9149
0.256,2243
0.0727,3231
-0.0806,6763
-0.243,10929
0.14,1657
-0.471,10894
0.0197,4816
0.0935,2086
-0.555,10905
-0.000758,5346
-0.163,10002
-0.0797,7486
-0.146,7356
-0.282,8739
0.132,3185
0.0838,2445
-0.292,10392
-0.108,6916
-0.275,8997
-0.216,8605
-0.141,8373
-0.156,9134
-0.0511,6960
0.814,1288
-0.218,10233
-0.0359,6050
-0.166,7489
-0.0596,7278
0.0338,4695
-0.0527,6162
0.319,1345
0.118,3374
0.415,386
0.201,1139
0.0955,2539
0.146,2594
-0.106,8442
-0.0342,5967
0.0596,3446
0.166,769
-0.0108,6228
0.00608,5117
0.33,675
-0.293,10762
0.253,462
-0.155,9630
-0.177,10235
-0.236,9355
0.0819,3670
-0.474,9347
-0.277,9883
-0.00762,5607
-0.0177,6005
-0.379,10437
0.118,2263
-0.165,4981
0.0491,3072
-0.0705,8403
-0.0118,5794
-0.113,7932
-0.145,8677
1.3,71
0.3,1702
0.182,639
0.22,1662
-0.213,7904
-0.237,10059
0.0801,3840
0.0617,3384
0.437,420
0.0711,3050
0.44,23
0.372,1291
-0.056,7724
-0.283,10020
-0.105,8730
0.131,1640
-0.121,6583
-0.404,10070
-0.0894,5583
-0.0095,5484
-0.145,9499
-0.142,8782
-0.105,6993
-0.226,9267
0.422,1279
0.203,712
-0.175,10572
0.626,33
-0.176,9599
0.0878,2870
-0.0456,6262
0.0805,3637
-0.17,8413
0.0765,2551
0.38,123
-0.213,9808
0.0455,4517
-0.306,9321
0.0153,4729
-0.0789,7463
-0.143,8901
0.0784,3112
-0.172,9261
-0.098,8115
-0.0102,5646
-0.113,9859
0.046,4057
0.449,280
0.228,1466
-0.0888,6843
-0.229,10309
-0.0483,7824
-0.0158,5635
0.0559,3121
-0.234,7554
-0.216,7504
-0.284,10436
0.0355,4533
-0.000686,5392
0.141,2514
0.139,2047
-0.0964,8739
0.218,3208
-0.0269,6223
0.0186,4728
0.484,205
-0.0259,5740
-0.0138,5768
-0.0666,6502
-0.256,10929
-0.106,8739
-0.231,10577
-0.13,7095
0.251,1133
-0.173,5328
0.067,3666
0.0205,4640
0.012,4810
0.0062,5024
0.284,280
-0.183,8997
0.0348,4379
0.35,224
-0.402,10079
-0.333,10524
-0.2,8160
0.576,708
0.0619,3278
0.123,2036
-0.196,10418
-0.0946,7325
-0.308,8861
0.0426,4160
-0.161,9435
-0.164,9548
-0.00727,5229
-0.145,9584
-0.037,6051
-0.0221,6043
0.218,2007
-0.0183,5609
-0.107,7173
-0.097,7751
-0.0333,6138
-0.14,8081
-0.143,10143
-0.0629,7716
-0.105,7364
-0.014,5929
0.322,2329
0.253,1228
-0.232,10300
-0.202,10540
-0.0508,6391
-0.491,10656
0.13,3685
-0.278,9569
-0.167,9620
-0.0333,6681
0.0951,3837
0.217,876
0.0639,3968
0.564,188
0.267,536
-0.0482,6723
-0.0868,6767
0.175,2192
-0.175,9016
0.176,2043
0.0859,3642
-0.146,9795
-0.443,10860
0.256,1549
0.0111,4970
0.386,963
-0.00168,5319
-0.15,10056
-0.0481,6369
0.0831,3795
-0.0427,7074
0.038,4549
0.0908,2637
-0.00681,6374
-0.0456,7161
-0.172,7749
0.0876,4081
-0.0766,8193
0.145,2100
0.139,1008
0.4,546
-0.201,8587
-0.356,8559
-0.367,10383
-0.0314,6241
-0.005,5321
-0.218,9656
-0.203,8445
-0.19,9142
0.0657,4179
-0.0502,6635
0.0593,3993
-0.151,8137
-0.0594,7048
0.839,44
-0.204,8842
-0.101,8326
-0.136,9225
0.528,82
-0.167,9532
0.017,4581
-0.342,10879
-0.171,8380
-0.0671,7458
-0.166,9428
-0.0102,5663
-0.0307,6191
0.0244,4872
0.0692,2582
0.000129,5422
0.213,1054
-0.12,8724
0.0651,4226
0.0324,4335
0.0446,3847
0.314,740
0.205,2493
-0.31,10957
-0.279,10410
-0.0102,6073
0.168,1833
-0.122,8029
-0.0103,5741
0.0851,3533
0.00942,4836
-0.246,9964
-0.0632,7299
-0.0163,5957
-0.125,7901
-0.207,10119
0.382,566
-0.153,6747
0.0134,5178
-0.281,10558
-0.117,7727
0.0475,3533
0.000766,4750
0.0381,4036
-0.281,10027
-0.0159,6031
0.0677,3755
0.346,522
-0.335,9651
-0.328,9044
0.137,3042
-0.0477,6569
0.74,139
0.323,152
0.382,1514
0.0366,4525
-0.0872,8955
-0.152,10316
-0.0488,7076
0.0059,5423
-0.0485,7138
-0.104,8015
-0.119,8759
-0.0348,6360
-0.128,7830
-0.201,8895
0.801,246
-0.0155,5842
-0.0241,6240
0.0239,4571
-0.0327,6119
0.751,94
-0.14,6903
0.191,1392
0.04,4127
-0.408,10780
0.0626,3802
0.0334,4540
-0.0233,4659
0.221,1690
0.0766,3825
-0.0224,5800
-0.485,10360
0.745,435
0.53,16
-0.0265,6387
0.106,2707
0.708,76
0.0497,4254
0.491,166
0.0959,2892
-0.145,9420
0.0441,3502
0.0663,3783
0.137,2335
-0.175,8714
0.131,3255
-0.089,8173
0.395,4
0.107,1962
-0.123,7690
-0.57,10952
0.154,2155
-0.107,8008
0.027,3663
-0.0886,5883
0.13,2886
0.261,1854
-0.0887,7813
0.023,4405
0.228,706
0.0773,2908
-0.161,7914
-0.408,10977
0.327,905
0.0265,4099
0.0137,4794
-0.135,8277
-0.245,9773
0.233,699
-0.04,6264
-0.117,9563
0.308,123
-0.215,10635
-0.0375,6101
-0.128,7767
-0.0274,5650
-0.165,10205
-0.0562,8104
-0.173,9644
-0.116,7039
0.155,2356
0.164,2715
0.000719,5304
-0.00657,5667
0.00138,5227
0.266,1059
0.0865,3333
0.15,2753
0.108,2275
-0.22,10028
-0.217,9617
-0.00816,5490
-0.199,9805
-0.172,8902
-0.134,9319
0.0862,2593
-0.255,9223
-0.016,5850
0.249,1656
0.17,2143
-0.234,10526
-0.116,10673
0.031,4544
-0.17,8098
-0.263,10095
-0.116,7757
0.0127,4766
-0.0522,6353
0.124,2380
-0.167,8595
0.0965,1658
-0.0145,5574
0.16,1145
0.000362,5343
-0.0315,6048
0.0125,4880
0.0651,4025
-0.145,5646
0.0429,3620
-0.171,9672
0.169,2401
-0.146,7693
-0.259,8048
-0.119,6296
-0.0389,5925
-0.259,10930
0.00936,5236
-0.0976,8088
-0.372,8741
0.449,1491
-0.168,8970
0.23,270
0.129,2032
-0.0177,5702
0.251,1638
0.0622,3777
0.0979,2406
0.0281,4694
-0.0785,6913
0.181,2811
-0.135,7198
0.214,2118
0.151,1876
0.00258,5168
-0.0517,6441
0.103,3297
-0.0573,6679
-0.141,9176
-0.0448,8282
0.0647,3767
-0.334,10408
0.055,4252
0.188,1104
-0.242,6327
-0.00721,5856
0.0482,4113
0.184,883
0.296,1719
0.304,1635
0.232,1024
-0.0591,7167
0.225,1874
0.13,3499
0.124,2556
-0.142,7914
-0.307,10781
0.117,2466
-0.325,10708
-0.139,9121
0.0208,4818
-0.318,9408
-0.073,5632
-0.249,10736
-0.401,10836
0.762,15
-0.316,9413
0.167,3560
-0.0443,7232
-0.145,9411
-0.297,10344
-0.0943,8249
0.253,1121
-1.15,10724
0.0823,2993
0.132,2047
-0.207,9812
-0.177,9177
0.173,456
0.201,1232
0.000861,5437
0.0314,4437
0.152,3044
0.0875,2714
0.159,838
0.257,751
0.146,2385
-0.178,9699
-0.0643,7525
0.133,2543
0.211,1530
0.413,312
-0.375,9923
0.0666,2645
-0.153,9881
-0.0768,7901
0.154,2308
0.0828,3717
0.0162,5047
-0.031,6390
0.0768,3024
-0.165,9695
-0.0103,5352
-0.36,10390
-0.0359,6176
-0.102,9165
0.0206,4284
-0.0778,6691
0.324,895
-0.16,10066
-0.268,10812
0.0676,2695
0.0458,3973
-0.00414,5589
-0.458,9557
0.164,2494
0.236,2243
0.0896,2015
-0.124,10224
-0.433,10334
0.00507,5274
-0.383,8604
-0.166,8940
0.0998,2735
-0.0639,8408
-0.0289,6406
0.271,460
-0.12,10381
0.275,1215
0.0811,3273
0.111,3147
0.142,2038
-0.183,8493
0.722,25
0.259,1350
-0.18,10280
0.233,688
-0.0214,5668
0.062,3641
-0.175,8665
0.0667,4014
0.0992,3063
-0.159,9612
-0.207,8791
0.136,3340
-0.372,10417
-0.128,5704
0.251,191
-0.187,9079
0.0874,3409
0.0341,4599
0.651,173
0.228,2841
0.0966,1529
0.00859,4947
0.0347,4256
-0.0856,7265
-0.39,9973
0.357,807
-0.222,10357
-0.39,10086
0.23,1089
-0.174,9696
0.0496,3621
0.167,3046
-0.115,8542
0.135,1674
-0.0671,7110
-0.157,7664
-0.154,8976
0.929,60
-0.177,8943
-0.247,10020
0.0533,3869
-0.00852,5580
0.0989,3142
-0.0078,5344
-0.179,9486
0.0199,3814
0.409,1921
0.303,407
0.0551,4148
-0.058,7956
0.331,279
-0.0405,7250
0.217,1574
-0.0398,5868
-0.0214,5792
-0.131,7182
-0.304,10129
0.223,1626
-0.0707,6392
-0.193,8723
-0.132,7662
0.102,3425
-0.198,8350
-0.0845,8486
0.207,1618
-0.0881,8045
-0.0429,6327
-0.0499,6612
0.0755,2890
0.103,638
0.119,2517
-0.134,9280
0.0652,4496
-0.00539,5435
0.303,713
-0.154,8667
-0.147,7813
0.305,1134
0.835,294
-0.331,9197
0.017,4740
-0.076,7463
0.353,221
-0.251,8250
0.111,3241
-0.0209,5699
0.101,1933
-0.118,9395
0.0554,4222
0.262,1201
-0.276,9967
0.331,1963
-0.0566,7435
-0.0658,6981
0.363,1530
0.00393,5010
-0.204,8718
0.0281,4609
-0.242,10361
0.0395,3900
0.0179,4860
0.147,2778
-0.082,6811
0.144,1420
0.152,1496
0.222,1362
-0.107,9048
-0.0438,6517
0.345,670
0.524,329
0.253,297
-0.047,7035
-0.107,8064
0.127,2387
-0.501,10754
0.191,1062
-0.311,10943
0.139,2830
-0.189,7459
-0.197,9504
-0.131,8830
0.037,4388
-0.122,9521
-0.0859,6794
-0.179,9694
-0.143,7973
-0.039,6372
0.0319,4695
-0.0232,6633
0.0918,2368
-0.409,10000
-0.198,10636
0.0714,3580
-0.0771,5443
-0.144,9932
-0.0774,7410
-0.113,8558
0.295,1630
0.882,98
0.101,3537
0.0829,3147
0.171,1085
-0.25,8831
-0.0839,6569
0.295,2127
-0.297,9361
-0.176,9111
-0.251,10724
-0.261,9174
-0.156,9019
0.0579,4428
-0.159,7980
-0.121,10163
0.185,2222
-0.00132,5219
-0.0152,5592
0.537,418
-0.035,6374
-0.0229,6805
-0.184,10608
0.158,2761
-0.0702,7137
-0.358,10102
-0.165,8360
-0.188,8019
0.162,449
0.0326,4724
0.0516,4007
-0.229,10275
-0.0829,7647
-0.102,8051
-0.0882,10054
0.0403,4166
-0.28,10812
0.0873,3683
0.189,1871
0.183,562
-0.0887,6971
-0.0329,7882
-0.00989,5602
-0.101,8021
-0.0566,6416
-0.151,9170
-0.0584,7295
0.196,508
0.117,2686
-0.0479,6664
-0.267,9628
0.184,1771
0.164,1067
-0.0468,7088
0.534,222
-0.181,8796
-0.277,8420
0.0276,4937
0.0542,2629
-0.0491,7962
0.145,3718
-0.00815,5454
-0.0226,4651
-0.211,8955
0.0492,3874
-0.0477,7956
0.292,1527
-0.00736,5687
0.33,1091
-0.167,8876
-0.0133,5763
-0.0963,8973
-0.371,10010
0.0462,4029
0.078,3582
-0.0629,6163
0.0462,4019
-0.032,6143
0.0283,4249
0.0428,4292
-0.0111,5504
-0.187,7940
-0.00933,5531
0.216,359
0.0766,2983
0.301,988
-0.322,6970
-0.147,8871
0.0206,4761
0.206,413
-0.272,9240
-0.285,8471
-0.0682,6636
0.309,32
-0.0244,6520
0.489,198
-0.0984,8861
0.252,1198
-0.386,10512
-0.166,8583
-0.145,9965
-0.131,8714
-0.359,9553
-0.0582,7338
-0.223,8019
-0.219,8823
0.228,1250
0.019,4818
0.165,1014
-0.302,10406
0.0493,3546
-0.209,9925
0.285,994
0.139,1681
-0.194,9040
0.518,8
-0.141,7267
0.121,1960
0.0925,1750
0.235,1201
0.0617,3834
-0.123,7278
-0.262,9882
0.0609,3285
-0.0279,6080
0.129,1280
0.277,1043
-0.0711,6765
-0.0457,6031
-0.0908,6010
0.162,2381
-0.103,9249
-0.465,10758
0.0425,4206
0.14,2692
0.186,2792
-0.325,10918
-0.031,6126
0.00384,5369
0.205,2028
-0.138,8622
-0.0841,8306
-0.131,9682
0.106,3386
0.0362,4830
-0.0589,6943
-0.271,5623
0.0588,4288
-0.18,9499
0.0671,2858
0.086,2839
0.158,2374
0.0158,4803
-0.267,10348
-0.164,10049
-0.14,10707
-0.132,7789
0.119,1695
-0.0215,6125
0.13,2892
-0.0637,7818
-0.0411,6630
-0.073,6727
-0.137,7819
-0.117,8147
0.127,1229
-0.167,9698
-0.0675,7774
-0.0702,7237
0.0957,2955
-0.12,7366
-0.292,10763
-0.0837,8775
0.178,2541
-0.0628,4111
-0.151,9093
0.0545,4476
0.133,2492
0.111,1074
-0.027,5442
-0.118,6399
-0.144,7172
0.0367,3991
-0.0364,6152
0.0741,2857
-0.0543,7345
0.0506,4032
0.0969,2399
-0.275,9941
-0.264,8575
0.0119,4828
-0.0437,6517
0.0169,4766
-0.185,9571
-0.22,9941
0.0901,3510
0.0737,3113
-0.0835,7442
0.0272,4361
-0.057,5800
0.263,202
0.0417,4362
0.0421,3654
-0.195,10570
-0.0588,6468
-0.016,6073
-0.075,6835
-0.384,10788
-0.215,9537
-0.176,10279
-0.177,8733
0.149,1354
-0.0115,5689
0.389,187
0.348,1222
-0.0533,6995
0.00684,5382
-0.0387,6877
-0.082,7550
-0.149,8250
-0.00607,5534
0.278,455
0.0629,3791
0.158,1737
0.352,1904
-0.253,9448
-0.0844,7524
0.205,1903
-0.421,9916
0.0685,3605
-0.288,10700
0.0726,3935
0.0779,3651
-0.00166,5346
0.232,1459
-0.0838,7597
-0.186,7658
0.19,2722
-0.13,9255
-0.00712,5534
-0.062,6206
-0.0581,6485
-0.239,9047
-0.348,10064
-0.101,8013
-0.196,9332
0.276,2943
0.756,477
-0.966,9607
-0.461,9106
-0.0563,7270
-0.276,8067
-0.149,7486
0.0755,3455
0.0505,4349
0.335,787
-0.207,10821
-0.123,9512
0.821,256
0.061,3619
-0.000595,5409
-0.0866,6441
0.208,1288
-0.0333,7170
0.0637,3842
-0.00988,5215
-0.152,7948
0.0614,3952
-0.179,10229
0.164,801
0.153,2476
0.29,439
-0.113,7894
0.11,3418
-0.096,8626
-0.144,8897
-0.0503,6848
-0.253,10195
0.257,773
-0.38,10565
0.265,283
-0.152,9415
0.151,2429
-0.113,8277
0.0694,3722
-0.168,8854
0.02,4634
0.0842,2308
-0.517,8381
-0.197,7739
-0.0672,6337
0.152,2444
-0.0391,6794
-0.138,8491
-0.0674,8171
0.271,1549
-0.387,10525
-0.222,8439
0.0254,4504
0.0155,4399
-0.384,10910
-0.337,9561
-0.0294,6175
-0.00802,5326
-0.0437,6784
-0.236,10808
0.015,5269
-0.209,10943
-0.0918,9513
-0.099,6429
0.163,1682
-0.0845,9273
0.13,1818
-0.362,9813
0.617,139
-0.0994,6777
-0.0783,6092
0.253,1303
0.093,3281
-0.0515,6218
-0.279,9879
0.315,627
0.478,884
-0.166,9931
-0.184,4666
1.86,224
0.232,3037
0.0747,3330
0.191,1585
0.0128,4877
-0.00885,5934
-0.012,5623
-0.165,10724
-0.0367,6316
-0.217,9125
-0.359,10331
-0.1,6565
0.218,2323
-0.142,8327
0.125,4198
-0.353,9842
0.26,821
0.0795,3946
-0.0743,7033
0.115,2921
-0.0857,8015
0.227,990
-0.19,8321
-0.3,9885
0.151,1216
-0.0317,6102
0.0616,4319
-0.183,9761
-0.506,10516
-0.0148,5465
-0.0847,8936
-0.0422,6876
0.00133,5148
0.412,80
0.388,1017
-0.0112,5472
0.267,77
-0.0134,5446
-0.154,8891
0.105,2703
-0.0878,6861
-0.273,9142
0.2,837
-0.0483,6567
-0.0983,7511
-0.242,9314
1.29,163
0.0783,3737
-0.094,7855
0.0615,3180
0.305,617
-0.172,8886
-0.327,10318
-0.105,7387
-0.123,8851
0.0814,3365
0.185,1495
-0.0334,5836
-0.493,10394
-0.0527,6746
-0.00968,5567
-0.045,6591
-0.106,7081
0.137,2634
0.0342,4070
-0.112,8033
0.0254,4408
-0.0601,8860
0.0698,3768
0.34,690
-0.0577,6205
0.289,1103
0.014,4963
-0.199,10188
0.0304,4726
0.221,2094
0.414,283
-0.333,9676
0.182,2196
0.074,3233
-0.116,7363
-0.429,7952
-0.0586,5967
0.186,2747
-0.0358,5814
0.254,1331
-0.213,9616
0.0939,3562
0.245,1038
-0.0682,7539
0.145,1947
-0.0539,6088
-0.173,9829
-0.17,8993
0.0384,4556
0.492,72
-0.0158,6167
-0.227,9441
-0.131,9388
-0.259,6222
-0.3,9851
0.0451,3666
-0.159,9554
-0.012,5688
-0.151,7670
0.0564,3326
0.315,279
-0.19,10357
0.00443,5091
0.105,1039
-0.0134,5260
-0.373,9332
-0.228,8793
0.251,965
0.0342,4158
0.0331,4505
0.191,1585
0.183,909
-0.19,10519
0.013,4666
-0.112,9375
0.0354,3923
-0.0726,7165
-0.216,9142
-0.211,7798
-0.253,5789
-0.0187,5699
0.104,2791
0.0565,3416
0.186,2512
-0.0448,6613
0.0794,3572
-0.182,10270
0.0699,4197
0.211,343
0.111,2740
-0.0748,6159
0.0145,4507
-0.0789,8246
-0.134,8656
0.0916,3526
0.425,865
0.291,1521
-0.123,9986
0.0269,4709
-0.301,8017
-0.335,6469
0.44,2756
0.0633,4119
-0.00905,5476
-0.316,9808
0.289,1771
0.00244,5070
0.027,5021
0.00169,5182
-0.0431,6709
0.0425,4419
-0.264,10318
-0.283,8132
-0.261,9304
0.517,2009
-0.169,6970
-0.324,9731
-0.15,7356
0.187,1109
0.333,1417
0.112,3441
0.0558,3237
-0.161,9857
0.144,2904
-0.0275,6142
-0.0832,7843
-0.0876,5870
-0.0235,6718
-0.00918,5630
-0.194,9634
0.125,2618
-0.216,9914
-0.194,9001
-0.0329,6267
0.0469,3832
-0.427,9209
-0.0972,6397
0.552,1384
0.177,1497
-0.313,10824
0.129,1659
-0.301,9627
-0.216,9487
-0.203,9856
0.198,1428
0.0172,4548
-0.158,10129
0.755,1023
0.0674,4136
0.18,2810
-0.515,10986
0.101,2564
0.0155,4772
0.366,32
-0.0632,7420
0.143,3678
-0.0417,7670
-0.153,8529
-0.0715,8288
0.304,76
0.555,554
-0.243,8562
-0.0489,6626
0.0497,4172
-0.0348,6335
-0.0163,6197
-0.035,5949
0.112,2775
0.00161,5408
-0.0315,6719
-0.109,8942
0.0133,5422
-0.0489,6578
0.199,1350
0.161,2165
-0.282,10532
-0.128,8924
0.157,1442
-0.161,7617
0.403,1043
-0.325,9367
-0.1,7899
-0.0253,5720
-0.234,10215
0.518,246
-0.113,6072
-0.447,10461
0.000491,5213
-0.107,9178
-0.222,9973
0.0585,3519
-0.0719,9002
-0.186,8014
0.0174,4427
-0.158,9441
0.184,2083
-0.0893,7250
-0.215,9089
-0.359,10446
0.105,2736
-0.00402,5311
0.176,1814
-0.0228,6460
-0.0375,5517
0.118,2840
-0.277,11022
-0.00259,5159
-0.0656,6917
-0.436,11017
-0.163,6963
-0.213,8330
0.143,2227
-0.101,9430
-0.0987,8209
0.179,2316
-0.0203,4435
0.271,635
0.0199,4831
-0.044,7448
-0.328,8892
-0.0957,7909
-0.123,7669
-0.121,7352
0.0511,3568
0.222,1787
0.153,2388
-0.154,9181
0.712,657
-0.0738,7731
-0.105,8996
-0.14,9861
-0.103,6916
-0.106,7601
-0.172,7679
0.00871,5029
-0.0291,6216
-0.0764,8697
0.272,663
0.0399,4289
0.0647,2976
0.0867,3620
-0.0437,6803
-0.156,8468
-0.305,8669
0.154,1640
-0.0328,5187
0.23,2527
0.0467,4261
0.0614,3987
0.0193,4419
-0.0577,7424
-0.189,9728
-0.188,8463
-0.0107,5610
-0.125,7479
-0.0678,6666
-0.17,9973
-0.25,9287
0.0486,4450
-0.259,8206
0.526,369
-0.204,8396
0.181,2905
-0.0966,4374
-0.0309,6472
0.168,1142
-0.0639,7488
0.103,2936
-0.231,9520
-0.0777,6439
0.0332,4512
-0.0119,5754
-0.25,10600
0.329,1990
-0.073,7958
-0.236,9536
0.0989,2988
0.124,1994
-0.0287,6225
-0.012,5900
-0.071,7410
-0.226,9142
-0.373,10904
0.151,1198
0.0335,4094
0.0684,3669
0.172,2453
-0.207,8654
0.814,140
-0.075,9263
0.0696,3878
0.231,1355
-0.0925,7001
-0.185,8205
0.0275,4874
-0.0666,7056
0.0042,5444
0.285,2013
0.226,2512
-0.186,8515
-0.16,8219
-0.0137,5977
0.0213,4474
-0.126,7409
-0.108,6598
0.326,1490
0.0925,3561
-0.0105,5356
-0.151,10431
-0.182,8913
0.0777,3278
-0.593,10011
-0.157,3356
-0.0241,6407
0.411,97
0.072,3772
-0.129,8787
0.0875,3271
0.275,1308
-0.112,9764
0.0191,4505
0.0102,5044
-0.226,9829
1.33,296
-0.47,11011
-0.00646,5372
-0.122,9149
-0.0954,7710
0.407,1851
-0.0468,5938
-0.0931,7732
0.177,851
-0.145,9708
-0.203,8548
0.28,2026
-0.0525,6858
-0.0684,7432
-0.238,10283
0.218,2301
-0.0122,5166
-0.0832,7122
0.312,791
0.11,3175
0.0296,4539
-0.137,10412
-0.0846,6766
0.26,672
0.13,2710
-0.377,9314
0.157,598
0.158,1567
0.241,829
-0.0988,8041
-0.0396,6473
0.0819,3308
0.00782,5024
-0.189,8913
-0.11,7641
0.179,1426
-0.0133,5689
-0.085,9055
0.313,286
0.0385,3611
0.0279,4669
-0.129,7082
-0.154,7207
-0.223,10203
-0.00283,5507
-0.0302,6567
-0.0909,7343
0.282,1325
-0.205,9189
0.108,2110
0.0537,3780
0.201,1339
-0.0139,5405
0.16,2189
-0.207,10902
-0.117,8442
-0.179,9982
0.171,1068
-0.169,7709
0.248,1599
-0.111,7307
-0.15,8292
0.114,2600
-0.0788,8422
-0.131,7644
-0.263,8977
-0.177,8741
0.258,2092
0.0105,5110
0.0312,4237
-0.0192,5469
0.098,3579
-0.0976,6569
-0.267,8369
0.216,1019
0.00967,5084
-0.0696,7046
0.61,326
-0.114,8530
-0.0327,6087
0.0825,2459
-0.0687,7307
0.0375,4192
0.363,780
-0.173,8178
-0.21,8291
0.126,2382
-0.0526,7292
-0.182,8557
-0.217,9087
-0.141,7804
-0.0544,6617
0.148,1877
-0.0929,8995
-0.311,9992
0.253,1983
0.0133,5276
-0.268,9418
0.34,106
-0.0552,7965
-0.0132,5334
0.0826,3492
-0.185,8993
-0.0114,5710
-0.0116,5509
-0.0517,8006
-0.309,10540
-0.0796,7269
0.0667,4396
0.308,154
-0.0381,6615
0.0696,2334
0.163,2527
0.123,1638
-0.0336,6044
-0.241,7759
-0.0257,6145
-0.246,10637
0.283,130
0.246,1196
0.403,894
-0.274,10409
0.123,2016
0.455,51
0.131,2198
0.0305,4607
-0.236,7839
-0.0834,7214
0.0972,2919
-0.225,10182
0.323,1079
-0.225,9105
0.0368,4382
0.0935,4056
-0.114,8094
-0.0806,7794
-0.0654,6905
-0.25,10156
0.253,675
0.33,611
0.0271,4171
0.0569,3484
0.153,2901
-0.171,9601
0.0712,3779
0.233,2225
0.119,2027
0.00085,5030
-0.258,9592
-0.236,8954
-0.0197,5727
-0.293,7782
0.179,1465
-0.103,9673
0.0619,4224
0.024,4738
0.063,3813
-0.221,9911
-0.0925,7869
0.248,754
-0.229,10284
-0.151,8771
-0.152,7993
-0.131,8721
0.0514,3712
0.141,2859
-0.161,9898
-0.281,10281
0.89,1253
-0.01,6034
0.258,759
0.03,4334
0.0222,4771
-0.000973,5551
0.0809,4049
-0.0225,6179
-0.115,8961
-0.0656,6291
0.255,1647
-0.0906,7156
-0.271,9418
-0.102,7773
0.112,2684
0.0641,4026
0.127,1848
-0.213,9246
0.0536,3850
-0.0519,7329
0.0316,4138
-0.0722,6244
-0.116,7853
0.00964,5074
0.149,3417
0.00242,5353
-0.025,6531
-0.258,9037
0.119,2139
-0.297,9350
0.34,2021
0.0194,4444
-0.0626,7053
-0.165,10484
-0.0935,7200
-0.15,7936
0.116,2272
0.0465,4014
-0.166,9941
0.567,229
0.191,546
-0.133,6500
-0.226,9458
0.0624,3623
0.163,1085
0.223,1556
0.232,1269
0.119,2845
0.000248,4815
0.000229,5512
0.128,3394
-0.132,7721
0.347,429
0.279,1750
-0.538,9515
-0.0456,6788
0.169,1619
0.598,1227
-0.0697,5989
-0.0876,6530
-0.0242,5663
0.0583,3477
0.043,3891
-0.203,9494
0.147,1289
0.061,2139
0.302,818
-0.177,10434
-0.192,10397
0.16,3390
-0.327,5335
-0.0663,5978
-0.323,7835
-0.251,9453
-0.186,9925
0.129,3121
0.196,1986
-0.0388,6810
-0.286,10312
-0.325,10957
0.106,2241
0.0242,4798
0.0526,4204
-0.216,9254
-0.178,5573
0.126,1963
0.0719,2623
-0.139,8804
-0.0554,6637
0.574,97
-0.204,8056
-0.0254,6207
-0.0375,8455
0.809,379
-0.0662,6942
-0.239,7117
-0.135,7684
-0.175,9823
0.174,180
1.6,208
0.0553,4356
-0.24,10982
0.123,2482
0.135,981
-0.0581,7713
-0.0629,10768
-0.00104,5298
-0.0208,6128
0.157,2675
0.178,662
-0.0316,6699
-0.0283,5886
0.0514,4291
-0.293,10352
0.241,283
0.28,306
-0.0458,6485
-0.258,8666
-0.198,6943
0.448,838
-0.0243,5458
0.0799,3340
-0.0384,7312
0.14,1179
0.0442,4208
0.0848,3469
-0.324,8896
-0.265,5638
0.175,1174
0.0594,2608
-0.218,8942
-0.16,7837
-0.14,8087
0.0892,4194
-0.0802,7163
0.101,1834
-0.145,7827
0.0346,4616
-0.268,10704
0.552,1092
-0.0941,8127
0.0597,4170
0.00578,5018
0.44,356
-0.14,8993
-0.307,9756
0.167,693
0.155,1070
0.203,1378
0.0144,4994
-0.509,10552
-0.361,8592
-0.0236,6953
0.0357,4270
0.119,1838
0.109,2469
-0.0392,6162
0.0794,4238
0.254,1004
0.248,2511
0.356,1288
0.182,2659
-0.197,8617
-0.0245,5487
0.114,2136
-0.0081,6105
-0.5,10617
-0.0527,7807
0.018,4730
-0.257,8136
-0.188,9632
0.0926,3382
-0.109,9136
-0.162,8227
-0.131,7015
0.123,1874
-0.0367,5883
-0.0395,7634
-0.0301,5983
0.0782,3967
0.247,1532
0.678,58
0.199,931
-0.0863,7387
-0.0731,6818
0.0916,3622
0.0321,3669
-0.126,8134
0.0732,3092
0.262,186
-0.12,8393
0.0254,4813
0.302,1265
0.0442,4503
0.0342,4520
0.00976,5077
0.00994,4808
-0.0327,6298
0.093,3951
-0.112,8106
-0.105,7906
-0.0227,5748
0.0443,4083
0.0725,4000
0.136,1978
-0.00821,5501
-0.0944,8279
-0.0213,5783
-0.169,10560
-0.122,7339
-0.194,8402
-0.00423,5457
0.246,662
-0.212,8431
-0.18,9984
-0.0357,6038
0.199,996
0.0274,4196
8.97e-05,5572
-0.129,9260
0.0696,3881
0.3,1448
-0.127,8083
-0.228,9264
0.464,377
-0.0586,6360
0.247,2233
0.0307,4230
-0.0658,6166
0.223,1311
0.111,2776
-0.0886,7407
0.0457,4475
-0.571,9916
0.0155,4805
0.123,2575
0.0345,4445
-0.688,10179
0.026,4836
-0.365,10247
-0.0976,6223
-0.148,5563
-0.00557,4948
0.128,1999
-0.309,9524
0.185,2332
0.0341,4027
-0.145,10149
-0.102,7880
-0.335,9210
1.42,10
-0.164,9610
0.0548,2488
0.127,1331
-0.124,7968
-0.142,9449
0.0843,3184
-0.143,8031
-0.312,10652
0.0683,3204
-0.123,6490
-0.279,10907
0.0744,2609
0.535,644
-0.00333,5180
-0.0145,6144
-0.0021,5236
-0.243,9578
-0.178,8857
0.192,1574
0.0368,4380
0.0803,3737
0.0364,4470
-0.158,9839
-0.0312,5891
0.139,3357
-0.146,9728
0.018,4804
0.252,2035
0.38,939
0.252,1368
-0.314,10096
0.178,618
-0.149,9022
-0.266,8522
0.613,145
-0.19,8899
-0.0287,6215
-0.114,8422
0.13,961
-0.226,10737
0.177,2595
-0.0136,4705
-0.0209,5567
0.0168,4896
0.237,62
-0.0565,6608
0.0587,4348
-0.386,10312
0.181,1343
-0.0743,7877
-0.0375,6305
-0.188,9593
0.669,22
0.312,988
0.334,265
0.0247,4401
-0.0927,7620
-0.0631,6588
0.456,77
0.357,1097
0.444,356
-0.0986,8317
0.0353,4304
-0.116,7936
-0.0331,6742
0.234,735
-0.0252,6627
-0.0404,6170
-0.0219,6050
-0.289,10103
-0.119,9902
0.146,2091
0.217,1376
-0.00231,5636
-0.282,10773
-0.0856,8154
0.0407,3729
0.00635,5089
0.0503,4215
-0.211,10413
-0.0894,7934
-0.0419,6304
0.17,2469
-0.0906,7328
0.265,391
1.03,2
0.144,2744
0.265,713
0.0551,4428
0.00588,5311
0.498,1958
-0.0919,8350
0.0672,2623
0.0239,4672
0.498,613
-0.064,7559
-0.0653,6543
-0.0365,6934
0.078,2844
0.0421,4202
-0.0945,7257
-0.221,7639
-0.0122,5364
0.0435,3775
0.131,1238
-0.164,9380
-0.0658,7198
-0.0892,6897
-0.158,8541
0.0991,3222
-0.00138,5495
-0.025,6175
0.22,715
-0.0332,6266
0.115,1768
-0.288,9488
0.231,1763
-0.13,8183
-0.351,10175
0.00286,4416
-0.164,5794
-0.0105,5823
0.0813,1781
0.0101,5184
-0.417,9718
0.208,753
-0.127,6821
0.458,255
-0.085,8330
-0.399,10530
0.159,1541
-0.178,8953
0.142,3146
0.0461,4850
-0.0581,6349
-0.2,9121
-0.484,10733
-0.00317,5654
-0.318,10768
-0.0105,5817
-0.0424,7346
0.627,95
0.229,767
0.0825,3451
-0.0505,6704
-0.0822,9117
0.015,4597
0.0178,4771
-0.0491,6513
-0.22,8723
-0.117,8732
-0.0794,7758
0.0348,4105
-0.0491,7121
-0.146,9019
-0.109,9742
-0.188,7102
-0.00295,5439
-0.174,9443
0.0478,4306
1.5,33
0.104,2803
-0.101,7446
-0.0246,6289
0.0934,1755
-0.37,10402
-0.066,7430
-0.0101,5417
0.0191,4786
0.23,890
0.118,2583
-0.113,9209
-0.158,9233
0.0137,5073
-0.0789,7433
-0.0571,7341
0.0727,3077
-0.0617,7202
0.0586,4033
-0.286,8602
-0.214,6211
-0.0809,8487
-0.0809,8374
-0.103,8165
0.132,2204
-0.5,10910
0.0775,3935
-0.0786,7543
0.0838,2438
-0.245,10326
-0.158,8843
0.00178,5036
-0.266,9821
0.06,3117
-0.00385,5713
0.106,2676
-0.0492,6882
-0.393,9227
0.237,198
0.00794,5123
-0.083,6899
-0.119,9034
0.382,1138
0.084,3386
-0.247,9744
0.0549,3573
-0.109,8871
-0.0253,5779
0.0378,4661
0.0275,4481
-0.441,6505
-0.195,10504
-0.282,10936
0.412,735
0.0648,3523
0.119,2541
-0.255,8552
0.0728,3524
-0.0851,7866
-0.227,9068
-0.266,9940
-0.221,8858
0.16,2043
0.0412,3951
0.248,1001
0.172,3026
-0.171,7550
-0.173,7982
-0.0051,5610
-0.0495,7439
-0.0562,8366
0.249,1181
-0.265,8294
-0.116,7871
-0.244,9877
-0.388,8320
-0.0669,8576
-0.176,8535
0.137,2353
0.311,1802
0.668,2
-0.39,9986
-0.0531,7519
0.18,1253
0.192,2457
-0.368,7861
0.991,7
0.0664,3523
-0.0123,5476
-0.409,10636
0.515,377
-0.193,8128
-0.208,7286
-0.0471,6978
0.244,615
-0.195,8466
-0.028,6003
0.0396,4505
0.0855,2594
0.0332,4043
-0.0238,6266
-0.271,10165
-0.348,10808
0.311,1865
-0.113,7352
-0.0387,6816
-0.0403,6821
0.203,2980
0.233,899
-0.129,8378
-0.129,8641
-0.116,9180
0.0913,3672
-0.0329,6411
0.271,1470
-0.0478,6384
-0.532,10796
0.139,2213
0.264,1103
-0.307,9844
0.105,988
0.0767,3991
0.0931,2700
-0.0199,5850
-0.0593,7619
-0.294,9817
-0.0522,7294
0.0367,4334
-0.186,9180
0.00705,4921
0.00184,5090
-0.124,7416
-0.149,8392
0.459,31
-0.138,8124
-0.279,10096
0.0334,4239
0.175,2974
0.607,1446
0.253,997
0.0576,4223
0.111,3095
-0.14,9864
-0.168,7746
0.453,1009
-0.115,9122
-0.166,6561
0.224,1330
-0.0774,8641
0.12,2660
-0.0678,5367
-0.152,8127
0.000842,4893
-0.0664,9236
-0.156,9472
-0.281,10446
-0.4,10804
0.0719,3777
0.101,3216
-0.102,8482
0.0779,3413
0.00838,5140
-0.0853,7462
0.0181,4716
0.0892,3474
0.0529,3588
0.00912,4891
-0.475,10822
-0.0988,7478
-0.157,7926
-0.316,8600
0.121,2374
-0.00474,5413
-0.171,8835
-0.0752,6476
-0.00172,5365
-0.274,10515
0.0514,4174
-0.779,10828
-0.0425,7111
-0.0892,7362
-0.164,10565
0.0174,4785
0.17,1325
-0.0191,6128
0.185,2076
0.174,2001
0.126,2453
-0.187,7776
0.113,2301
-0.139,7702
-0.409,8198
0.00939,5099
-0.145,8971
0.333,1526
0.0511,3906
0.0437,4647
0.252,2068
-0.189,9179
0.062,4073
0.122,1985
-0.0174,6448
0.0238,4339
0.108,2573
-0.201,9207
-0.313,8795
0.189,246
-0.16,9704
0.0439,2920
-0.321,10357
-0.388,10163
0.658,2273
0.357,2013
-0.0659,7452
0.194,1911
-0.425,10846
-0.0118,5903
0.151,3421
0.197,2668
-0.0738,7426
0.258,873
0.131,2263
0.0953,3463
0.0535,3917
0.0434,4273
-0.0677,8249
0.0525,3438
-0.177,9392
0.277,384
0.0176,5026
0.0738,3686
-0.00988,5546
-0.171,7717
-0.18,9750
0.0102,5198
-0.144,7312
0.0377,4499
-0.125,9428
-0.107,7876
0.258,1292
0.0394,4215
0.587,91
-0.536,10253
-0.183,9684
0.0409,3302
-0.0374,6832
-0.0243,6167
-0.0938,7509
-0.208,10083
0.00519,5267
-0.246,10354
-0.22,8110
-0.0191,5732
-0.0948,7166
-0.223,8022
0.0795,3315
-0.0424,8735
-0.279,10542
0.0643,3544
-0.0969,7612
-0.299,11021
0.307,269
-0.185,9920
-0.417,10768
-0.015,5942
-0.0355,6109
0.185,862
-0.0163,5893
-0.0684,8232
-0.202,9325
0.019,5322
-0.201,9708
-0.0559,6352
-0.388,10490
-0.0939,7077
-0.0105,5538
0.0968,4030
-0.359,10719
-0.4,10197
-0.0337,6913
-0.205,10151
0.0103,4909
-0.165,7289
-0.06,6897
-0.288,7202
0.132,1292
-0.207,9808
-0.13,7601
-0.264,10243
-0.196,10270
-0.371,8530
-0.0553,6995
-0.0117,5905
-0.079,6812
0.0689,4158
-0.0765,6778
-0.485,10162
0.0607,3774
-0.102,7081
0.224,1149
-0.0994,7836
-0.176,6371
0.272,1414
-0.149,9437
-0.00851,5788
-0.167,7598
0.049,4256
-0.043,6501
-0.128,6731
0.197,664
0.0142,4681
-0.229,9125
0.142,2155
-0.194,9512
-0.0752,6823
-0.181,9642
-0.289,10828
0.247,612
-0.274,10715
-0.183,10319
-0.0309,6380
-0.197,9503
0.287,497
-0.262,9612
-0.075,7009
0.144,1044
-0.47,9930
-0.0786,8400
-0.168,9402
-0.22,9104
-0.0455,7267
0.149,3527
-0.228,9545
0.0901,2542
-0.134,9195
-0.4,9223
0.29,1326
0.0518,4637
0.076,2026
0.0248,4277
-0.101,7646
-0.076,7612
0.096,3017
0.207,1965
-0.148,8864
-0.0741,6269
-0.0364,6420
0.209,1878
-0.325,9678
0.0416,4387
-0.118,7893
0.0872,3544
-0.24,8276
0.0566,4112
0.326,838
-0.265,9268
-0.0758,6279
0.00393,4860
-0.205,8091
0.797,591
-0.345,7828
0.0566,3962
-0.071,8545
-0.156,10440
0.093,3415
0.131,1827
0.559,235
-0.201,9077
0.00791,5227
-0.0611,6879
-0.097,6934
-0.245,9542
0.342,280
-0.072,7433
-0.00778,5275
-0.138,7301
-0.0878,7523
0.144,1642
-0.279,8920
0.0571,3577
0.198,1363
-0.0238,7382
0.0796,3655
-0.227,9200
-0.0938,7039
-0.106,7706
-0.0363,6667
0.063,3556
0.0163,4874
0.122,1577
0.126,2795
-0.05,6063
0.00325,5311
0.147,1971
-0.565,8818
0.126,2763
-0.208,8778
-0.109,9052
-0.126,8486
-0.122,8803
-0.206,9368
-0.174,8639
-0.397,9494
0.291,2765
-0.0456,7872
0.315,341
0.0614,3761
0.17,2911
-0.328,8986
-0.394,8805
0.00649,5110
-0.0991,7736
-0.163,9694
0.181,2781
0.0506,3468
0.00153,4891
-0.0531,6572
0.136,2606
-0.182,9911
0.463,252
0.012,4783
0.134,2651
0.123,2519
-0.193,10604
-0.194,8546
0.148,2996
-0.0696,7294
0.0554,3965
-0.0106,6086
0.0244,4720
0.034,4482
-0.207,8893
-0.278,8263
-0.247,8253
0.226,906
-0.0853,9007
-0.26,10255
-0.12,7898
-0.222,9985
0.0419,4299
-0.221,10205
0.078,3813
0.0536,3932
-0.111,8144
0.125,1994
-0.0884,8571
0.261,735
-0.328,10630
-0.311,9423
-0.292,10479
0.368,210
-0.416,10480
-0.115,8349
0.331,651
-0.114,6441
-0.0424,6942
0.253,2284
-0.0575,5950
-0.194,10184
-0.0396,6147
0.203,2077
-0.0371,6767
-0.111,8657
0.194,2931
0.261,492
0.0637,2950
-0.973,10737
0.101,2983
0.349,548
-0.0877,7475
-0.199,10166
0.273,1153
0.014,5236
0.143,3343
-0.227,10534
-0.0511,7642
-0.152,10014
-0.0899,9022
0.124,1822
-0.0861,7796
-0.261,8874
-0.136,5472
-0.089,8148
0.185,1026
-0.243,10491
0.145,2276
-0.192,7535
0.213,341
0.0741,3209
0.0121,4829
-0.106,5807
-0.151,11028
0.0295,3430
0.206,732
-0.256,10404
0.0824,3225
-0.201,9105
-0.0143,6306
-0.0423,8097
-0.406,6876
-0.186,5333
-0.0456,7320
-0.0499,7246
0.00851,5159
0.223,1296
0.0846,3790
-0.134,7875
-0.00852,5370
-0.104,8215
0.434,195
0.0586,4283
-0.0525,6587
-0.0144,5684
-0.0248,5698
-0.177,10699
-0.107,8831
0.0544,3891
-0.183,8082
-0.297,9529
-0.384,10806
-0.0106,5576
-0.0362,6815
0.131,1627
-0.00315,5305
-0.448,9719
0.174,2895
-0.196,10098
0.156,2133
0.124,1870
-0.187,10145
-0.0745,7156
0.281,2908
0.228,1253
-0.155,9995
-0.00637,5520
-0.153,9077
0.0785,2807
0.845,659
0.146,1288
-0.139,8647
-0.126,8182
-0.0782,7698
0.57,474
-0.0296,6188
0.0285,4655
0.0639,3234
-0.118,8396
-0.167,8421
-0.138,8999
-0.0657,7088
-0.2,9976
-0.0232,6894
-0.214,9623
0.142,1737
-0.177,7387
-0.146,9422
-0.0815,9007
-0.0799,8049
0.33,333
0.121,3923
0.18,905
0.107,3233
-0.243,10958
0.0892,2357
0.106,2986
0.0776,3752
-0.204,9812
-0.249,9942
-0.027,5821
-0.0545,7473
-0.172,8140
-0.106,8528
-0.266,9202
-0.306,9326
-0.285,10870
-0.122,7013
-0.0314,6144
-0.0356,6083
-0.00875,5452
-0.139,7607
0.247,1029
0.0551,3008
-0.0094,5584
-0.232,9843
0.236,831
-0.0434,6331
-0.0884,9334
0.335,23
-0.125,8684
-0.235,8562
0.414,2955
-0.329,10754
0.0184,4480
-0.0293,6114
-0.0221,6069
-0.357,10856
0.0828,3756
0.0501,4304
0.112,2718
-0.0484,6496
0.355,2662
-0.171,5314
0.0662,4405
2.15,52
-0.128,7395
-0.0479,5735
-0.137,9623
-0.52,10949
-0.269,8698
-0.0357,6084
-0.0209,6662
-0.0279,6089
-0.0365,6460
-0.591,10817
-0.0785,7811
0.386,1400
-0.0592,6955
-0.266,10922
-0.00984,5616
-0.171,6970
-0.0252,5092
0.0176,4758
0.0559,3654
0.146,1514
-0.0631,6856
-0.0592,5993
-0.144,8389
0.398,326
0.0576,3795
-0.177,9613
0.219,702
-0.174,9166
-0.399,10512
0.0836,3940
0.491,16
-0.289,10545
0.136,2403
-0.126,8142
0.2,2927
-0.0308,6398
-0.143,9071
0.0632,2856
-0.248,9063
-0.0313,6587
-0.00154,5289
-0.409,10810
0.0657,4035
-0.0289,6294
-0.329,10916
-0.259,8195
-0.0742,7559
-0.0726,7889
-0.113,8325
-0.0166,5822
-0.286,10434
-0.38,6321
-0.305,9500
-0.0727,7817
0.0752,2375
-0.222,10068
0.658,1552
0.147,2069
0.00839,5103
0.0908,2724
-0.158,9831
-0.137,9675
-0.335,8888
-0.0463,5564
-0.0615,7160
0.0192,5165
0.152,1892
-0.00422,5315
-0.178,8562
0.152,2761
-0.128,10032
-0.0251,5366
0.0536,4015
0.111,2723
0.0338,4563
0.244,1336
-0.125,9749
-0.0011,5460
-0.113,8913
-0.1,7775
-0.215,8744
0.00292,5389
0.374,383
-0.184,9814
0.136,2589
0.138,1557
0.00126,5247
0.759,124
-0.289,10889
0.096,2831
0.222,2353
-0.222,9870
-0.174,8441
0.16,1809
0.133,1839
-0.0257,6190
0.211,1816
-0.427,9971
-0.233,8546
0.254,2055
0.164,732
-0.0733,7878
0.0447,4489
-0.0639,6320
-0.0127,5752
0.0171,5041
-0.117,9449
-0.0426,6151
-0.158,8879
-0.053,6646
-0.137,8680
0.167,1730
-0.0188,5927
-0.0677,6690
-0.0261,6146
-0.336,10383
0.265,1034
-0.286,10357
0.0853,2521
0.01,4984
0.129,3072
0.115,2677
-0.22,9396
-0.264,10035
-0.0161,5758
-0.0878,7334
-0.112,8527
-0.046,6735
0.0426,4518
-0.0304,6491
0.0463,2976
-0.199,7999
-0.0716,7831
0.162,3020
-0.0762,7212
-0.143,10034
-0.00766,5876
-0.161,9063
-0.141,8388
-0.0639,7063
0.0266,4776
0.166,951
-0.162,10132
-0.201,10565
-0.241,8934
-0.213,6212
0.0444,4448
0.176,1989
0.103,1931
0.0053,5445
-0.00336,5681
-0.146,7583
-0.398,10684
0.0371,4239
0.034,3889
-0.0637,7277
-0.0418,6402
0.0261,4675
-0.132,9335
0.0495,3569
0.214,755
-0.443,10898
-0.122,7957
-0.184,9004
-0.292,9151
-0.155,8816
0.158,2320
-0.487,9108
-0.144,7246
0.712,1072
-0.395,10163
-0.233,10114
-0.124,9413
0.0469,4110
0.57,20
0.331,1227
-0.0276,4128
0.11,1996
-0.278,8776
-0.131,7731
-0.0806,6616
-0.334,10369
-0.00832,5485
-0.24,10730
0.0632,3826
0.207,761
-0.305,7008
-0.0184,5725
-0.0259,5883
0.273,722
-0.251,10559
0.0125,5085
0.0601,3872
-0.138,6303
-0.0204,4913
0.0951,2153
0.0854,1435
-0.189,9736
0.134,2152
-0.521,9930
0.234,666
-0.0593,7036
0.0897,3246
0.17,1707
0.478,301
0.161,2186
-0.034,6280
0.0501,3470
-0.201,10658
0.16,1890
0.221,1680
-0.00341,5589
-0.0427,6702
0.0429,3301
-0.0222,5578
-0.195,8539
0.0446,4176
0.141,2710
-0.208,9722
0.0173,4420
-0.202,10347
-0.00219,5431
-0.187,10189
-0.699,10242
-0.186,7992
-0.0396,7121
-0.0652,6982
0.1,2821
0.146,3364
-0.111,8904
0.195,3261
0.0279,4255
0.149,351
-0.271,9430
-0.028,5553
-0.266,9703
-0.00706,5665
0.561,120
-0.225,10861
0.0199,4667
-0.0544,6413
0.05,4459
-0.0731,7307
-0.126,10277
0.813,54
0.196,2046
0.0805,2681
-0.311,10538
-0.0182,5455
0.188,765
-0.141,9667
-0.159,8540
0.246,2695
0.406,1224
2.16,23
0.182,835
0.0537,3086
-0.0625,6913
-0.21,10136
-0.443,9516
0.0161,4989
0.0486,4018
-0.0212,6098
0.154,2958
0.47,207
-0.261,10746
-0.0506,6839
0.0083,4980
-0.24,10898
-0.353,10256
-0.0213,6237
-0.122,7351
-0.269,10014
0.0448,3539
0.21,1937
-0.041,5822
0.537,520
-0.109,8365
-0.345,10001
-0.133,7639
-0.0745,6888
-0.14,9198
0.0908,1883
0.0639,3191
-0.0548,7060
-0.0248,6124
-0.116,8991
-0.26,9616
-0.112,8403
-0.191,10408
-0.195,9485
-0.14,8251
0.259,897
-0.0273,5786
-0.116,10180
-0.018,6213
0.355,67
0.0686,3773
-0.0486,6339
0.0809,3129
-0.0216,6075
-0.0127,5638
0.174,1705
-0.256,9191
-0.37,10850
-0.0568,6372
-0.189,10176
-0.197,9619
-0.187,9489
-0.114,8789
0.825,111
-0.147,9937
0.233,1083
0.363,1269
-0.148,8767
0.156,1782
0.198,2125
-0.081,6378
-0.109,7406
-0.043,7458
-0.0838,7475
0.177,1143
-0.0307,5875
0.377,873
-0.17,10122
-0.00125,5613
-0.071,6572
0.167,2516
-0.168,7538
-0.08,6524
0.0572,3070
-0.00187,5212
0.0447,3225
0.0513,4372
-0.185,8422
0.0227,4567
0.186,1624
0.0234,4562
-0.133,9611
-0.0103,5802
0.104,2890
-0.0799,8348
-0.0856,8015
-0.0439,6229
0.24,1177
-0.0117,5605
-0.111,8576
-0.0175,5937
0.028,4364
-0.182,9598
-0.0287,6156
0.592,22
-0.31,10146
0.0606,3715
0.173,2485
-0.0589,7256
0.15,2192
0.0591,3820
0.133,3159
0.194,1887
-0.217,9443
0.0888,3275
-0.009,5628
-0.0528,5633
0.158,3260
0.0634,2441
-0.254,10230
-0.216,8836
-0.0227,5710
0.0289,4620
0.127,1696
0.0958,3379
0.451,810
0.306,1395
-0.144,7903
-0.251,9259
-0.304,10174
0.096,3216
-0.0556,7646
-0.0798,7689
0.0396,4488
-0.0105,5343
-0.0503,6142
-0.197,9170
-0.142,9099
0.265,446
-0.112,7987
-0.082,7554
-0.29,10662
-0.0593,7616
0.0712,2527
-0.159,6968
-0.126,7537
0.133,2492
0.124,2690
-0.0141,6299
0.0554,4077
0.503,92
-0.126,8784
-0.228,10024
0.0604,4218
-0.0232,5698
-0.0879,8011
-0.116,8736
-0.0352,6085
-0.071,6823
-0.392,10836
-0.251,10008
0.0164,4870
0.0168,4682
0.00805,4946
0.185,2299
1.21,444
0.166,922
0.0378,3515
0.149,1711
-0.294,10122
-0.156,9782
-0.487,7467
0.0303,4045
0.0642,2996
-0.0916,7560
-0.0723,6424
0.112,3764
-0.238,9679
0.34,202
0.12,2625
-0.156,8525
-0.23,9858
-0.116,8757
0.972,1146
-0.201,9438
-0.155,9411
-0.284,10555
0.117,3050
-0.175,8736
-0.159,7169
0.0728,2087
-0.0757,8174
-0.000341,5342
0.0357,4308
0.17,1466
0.267,2528
-0.149,9736
0.188,2420
-0.0498,5047
0.196,1088
0.00768,5127
0.309,67
-0.111,9606
-0.155,10538
-0.425,10863
0.0863,3081
-0.121,8227
0.0189,4882
0.147,1105
0.16,405
-0.0961,8121
0.2,1744
-0.217,9115
-0.348,9209
-0.0789,6946
-0.14,9932
0.0671,4010
-0.279,8807
-0.198,9578
-0.105,7725
-0.174,10333
0.0828,3686
-0.128,7361
0.312,448
-0.475,10275
0.12,2868
0.031,3719
-0.0682,7829
0.313,947
-0.172,8845
-0.166,7521
0.00336,4998
-0.0948,8336
-0.0177,6093
0.104,2496
-0.193,9355
0.324,931
-0.325,10619
-0.0449,7459
0.102,1655
0.134,3447
0.104,2260
-0.124,8183
-0.0411,5451
0.254,457
-0.256,10524
-0.0602,6336
-0.185,7642
-0.239,9267
0.326,1767
-0.192,9757
-0.1,8039
-0.194,8928
-0.273,9719
0.00685,5066
0.075,4294
0.00836,5345
-0.0397,8604
0.0582,4239
0.0181,4808
0.333,2319
-0.138,8071
0.0155,4523
-0.0186,5816
-0.144,7424
-0.141,7678
-0.122,6209
-0.0913,6558
-0.139,8575
0.0862,3701
-0.0507,6797
0.0379,4116
-0.211,10550
-0.339,10085
0.043,3412
0.132,2196
-0.0355,6110
-0.22,10150
-0.283,6541
0.256,3003
-0.0497,6755
0.0518,4076
-0.264,10892
-0.242,8711
0.158,2102
-0.365,9026
0.454,96
0.03,4246
0.146,2176
1.18,827
0.0939,3347
0.101,3572
-0.157,10779
-0.0331,6019
-0.192,9442
0.428,500
-0.105,7942
0.0612,4097
-0.08,7922
0.585,121
-0.386,10834
0.0751,3797
-0.114,7962
-0.194,8014
-0.0242,6304
-0.108,8035
0.00233,5433
0.244,1114
-0.0382,5828
-0.0122,5847
-0.0407,7512
0.0463,3824
0.346,233
-0.115,8711
-0.294,9421
0.204,2016
-0.0379,6946
-0.0705,7062
-0.208,8953
-0.12,8098
-0.0442,7582
-0.0887,6196
-0.0439,7058
-0.0161,6286
-0.0472,7067
0.0673,2961
0.125,2778
-0.177,9639
-0.195,8584
-0.00976,5652
-0.101,8818
-0.134,7387
-0.159,8050
0.161,3609
0.583,1736
-0.0446,7858
0.0422,3582
-0.202,8745
0.249,303
0.209,1474
0.587,876
0.236,237
-0.00617,5934
-0.396,8925
0.404,2357
0.0541,4004
-0.169,7475
0.197,3044
-0.0482,7491
0.0768,4024
-0.0668,6642
-0.126,8955
0.0277,3890
-0.111,9102
-0.0853,7268
-0.0552,6153
-0.254,9646
0.121,2916
0.425,326
0.0352,3821
0.12,2082
-0.298,9557
-0.316,8670
0.435,522
-0.168,9663
0.0716,3778
-0.056,6278
0.0426,3999
-0.137,7946
-0.433,9950
0.00476,5117
-0.145,9613
-0.0624,7298
0.113,3927
-0.217,8387
-0.164,7432
0.351,900
-0.0673,7913
0.0583,3332
-0.044,5349
-0.257,7802
-0.345,6852
-0.307,8263
-0.0563,7365
-0.23,5533
-0.47,10010
0.552,307
-0.272,10597
0.29,2289
-0.0686,7218
-0.129,8469
-0.0144,5888
-0.122,8003
0.0887,2574
-0.0569,7175
-0.302,10135
-0.0784,7130
0.187,266
-0.321,9484
0.363,437
0.119,2868
0.0486,3487
-0.0208,5270
-0.165,10366
-0.0435,6629
0.12,3623
-0.34,10902
0.074,2808
0.0819,3186
-0.057,7003
0.0313,4673
0.229,112
-0.0464,7326
-0.092,6776
0.328,1272
-0.385,9506
0.0106,4586
-0.0738,6430
-0.0918,9409
-0.132,5898
-0.337,8653
-0.382,10380
-0.159,8468
-0.0228,5924
-0.0632,7390
0.147,1891
-0.308,10773
-0.128,8398
-0.269,10474
0.0675,2737
-0.245,10455
-0.288,10632
0.196,1469
-0.148,8081
0.0786,3860
0.0519,3490
-0.0365,7174
-0.0535,5609
0.265,2901
-0.587,9588
-0.0311,6058
-0.203,9955
-0.0824,7385
0.379,779
-0.129,8570
-0.107,8131
-0.193,10288
0.0484,3470
0.587,763
-0.178,9022
-0.146,7248
0.0688,3787
0.126,1475
-0.0706,7551
0.315,1187
-0.108,8307
-0.0893,5831
0.0585,4275
-0.0748,8251
0.0555,3888
-0.0774,7292
-0.183,9314
-0.0343,6232
0.199,846
-0.0528,7347
-0.225,10401
-0.179,7911
0.0773,3934
0.179,1747
-0.000677,4459
-0.018,5992
0.827,54
0.149,2995
-0.0173,5730
-0.174,8446
-0.0912,9034
-0.297,9638
0.256,1446
0.053,3952
-0.0567,7396
0.079,3315
0.0469,3793
-0.0747,7650
0.0879,1561
0.0409,4255
0.0902,3312
-0.244,9669
-0.0496,4920
-0.0366,6585
-0.134,9361
-0.211,9084
0.209,553
-0.155,6938
-0.522,10122
0.212,677
0.0739,1529
-0.244,9103
0.264,618
0.281,1061
-0.138,8995
-0.178,8724
0.11,2618
0.529,137
-0.17,8942
0.168,1251
-0.0993,7391
0.00725,4673
-0.0897,9029
-0.135,8680
-0.164,9629
-0.0369,5861
-0.267,10844
0.0407,4563
0.0617,3525
0.149,2441
0.000163,5296
-0.105,8345
-0.22,8635
-0.0425,6942
-0.178,9957
-0.217,9963
0.0977,3542
0.0845,4114
0.486,533
-0.00375,5619
0.0436,4531
0.196,1747
-0.113,8522
-0.17,6319
-0.00852,5744
-0.185,9076
-0.0876,8583
-0.0236,6015
-0.00138,5326
-0.0262,5943
0.115,3580
0.29,518
-0.0839,7943
-0.0861,8777
0.0562,3852
0.116,2886
0.0369,4099
-0.0738,8372
0.136,1009
-0.142,7284
-0.153,7987
-0.16,7754
-0.294,9808
0.127,2030
-0.177,8885
0.0457,4530
0.108,2908
0.251,2128
-0.0354,6205
-0.226,10423
0.36,81
0.13,3068
0.0594,4164
-0.0802,5327
0.0364,4687
0.54,165
0.192,548
-0.0593,6466
0.349,1022
0.0756,4771
0.168,1366
-0.164,8170
-0.283,10411
-0.0734,8171
0.346,1097
-0.0057,5692
-0.263,10327
0.297,296
-0.00123,5350
0.0633,4004
0.342,1524
0.0277,4658
0.121,1184
-0.235,10517
-0.116,5561
-0.311,9591
0.0901,3627
-0.0172,5803
-0.0462,6799
0.0614,2578
-0.164,10657
0.00441,4787
-0.3,10591
0.0135,4934
0.0133,4683
-0.157,9811
0.0232,4668
-0.0557,7217
0.656,81
0.0766,2501
-0.0372,6538
-0.0263,6495
-0.0124,5490
-0.00564,5514
-0.198,8068
-0.0624,6031
-0.116,7499
0.0706,3316
-0.0222,6250
0.379,196
-0.0671,7017
-0.25,9468
-0.049,6736
-0.0677,8552
0.0823,3645
-0.0116,5316
-0.138,9955
0.27,439
-0.12,9075
-0.0724,8697
0.0904,2953
0.126,2849
-0.244,9092
-0.298,9060
-0.166,9552
-0.0523,7689
-0.145,7527
-0.204,9931
-0.0279,5593
-0.024,4729
-0.0446,6779
-0.106,7927
0.641,922
0.262,836
-0.0412,6096
-0.0345,6552
0.352,468
-0.147,8490
-0.093,6824
0.299,560
0.956,288
-0.00584,5167
0.103,2116
-0.0432,7967
0.0444,4028
0.0727,3492
-0.0477,7356
-0.278,10040
0.00931,5017
0.0496,3798
-0.0577,6303
-0.0154,5917
0.424,1646
-0.263,10132
-0.0803,8280
-0.138,10628
0.00133,5143
-0.0169,5915
-0.24,8880
-0.124,9290
-0.209,10590
-0.0839,7997
-0.0938,6980
0.136,3221
-0.0946,7233
0.0193,4772
-0.223,6387
0.128,1265
-0.105,7981
-0.0378,6342
-0.0735,6521
0.0878,2454
-0.138,9626
0.0658,4067
-0.00568,4954
0.517,161
0.436,65
-0.176,8630
-0.0162,5678
-0.167,8464
-0.0146,5886
0.177,1569
-0.0241,6058
0.174,3528
0.0983,495
0.152,1242
-0.157,9756
0.327,456
-0.224,8605
-0.129,8629
-0.0955,7526
0.0553,3528
-0.123,9114
0.027,4663
0.0466,3842
-0.195,7810
-0.146,8105
0.318,198
0.0343,4562
-0.201,9738
-0.167,7564
-0.2,9703
-0.0395,6723
0.0738,3364
-0.205,10213
0.343,565
0.158,2552
-0.17,9775
0.118,3493
-0.0344,5906
-0.149,8846
0.0829,3726
0.065,3391
-0.033,6582
-0.0597,7588
-0.212,9497
-0.0724,6681
-0.369,9556
0.253,1628
0.0648,3955
0.0632,2678
-0.176,10276
0.0467,4153
-0.352,10574
1.01,158
-0.307,8704
-0.117,10199
0.093,3213
0.0625,3861
0.136,2658
-0.124,6060
0.119,2688
-0.0171,5750
0.0704,2729
0.0754,4296
-0.165,8472
0.6,338
-0.184,8277
-0.144,8466
-0.157,7780
0.264,452
-0.136,7903
-0.0926,8146
0.419,1234
0.082,1708
0.0437,3382
0.262,865
0.286,1387
0.264,1580
-0.304,9666
0.152,1733
-0.0893,8877
0.119,2286
-0.0178,5781
-0.194,8418
-0.0136,5583
-0.0597,9060
0.0487,4296
0.157,2996
0.105,2428
0.19,1657
-0.348,10404
-0.198,9406
0.00415,5161
0.112,2872
-0.248,9531
-0.0491,6179
-0.0813,7516
0.0264,4273
0.236,983
-0.587,9414
-0.0889,7756
0.384,816
0.0484,3965
-0.0129,5362
-0.273,10604
0.0553,3824
0.0547,4360
-0.0407,6222
-0.181,9747
0.00777,5012
0.084,1435
0.238,2104
0.182,1245
-0.353,9812
0.136,1968
-0.0601,6805
-0.0701,7329
0.0479,3618
-0.0837,6680
0.248,344
-0.278,8683
0.0365,3120
-0.24,10731
-0.317,10161
0.0488,4245
-0.16,8707
0.235,1138
-0.0208,6145
0.202,617
-0.094,7068
0.0442,4530
-0.071,7894
0.263,753
-0.0488,7735
-0.197,10430
0.138,2907
-0.107,8730
-0.278,6931
-0.188,8677
0.104,3027
0.112,1008
-0.141,7856
0.2,1559
0.0645,3767
0.321,469
-0.0939,8068
-0.248,10439
0.742,19
-0.404,9409
0.314,967
0.235,1407
-0.081,8108
0.281,973
-0.347,7561
-0.0906,6995
-0.0857,6702
-0.0965,7036
0.0257,3806
-0.11,8541
-0.158,8266
0.182,1231
0.333,270
-0.0441,6237
0.0965,1551
-0.119,9349
-0.371,10520
0.164,2465
-0.174,8757
-0.0635,6737
0.0142,4750
0.362,173
0.336,885
-0.0676,6484
0.145,1880
0.13,2830
-0.2,10305
0.159,981
0.239,2575
1.14,2
-0.604,8234
-0.119,6975
0.108,2191
0.0247,4434
-0.303,9840
0.0382,4621
-0.00156,5229
-0.117,8183
-0.0583,7229
0.115,2043
-0.465,7414
0.0485,4487
-0.114,9442
0.0123,5091
0.0268,4631
-0.1,7985
-1.56,10770
-0.341,10128
0.183,1700
0.39,1746
-0.176,8505
0.224,303
-0.583,9904
-0.0798,8259
0.449,1069
-0.131,9320
0.00999,5063
0.14,2195
-0.139,7817
-0.244,9040
0.196,3293
-0.31,10017
0.129,3277
0.0848,3557
0.038,4395
-0.407,10682
-1.12,10325
-0.278,10472
0.113,1370
0.143,2652
-0.224,8446
0.253,2846
-0.235,8610
-0.0166,5906
-0.117,7925
0.214,571
-0.36,10060
-0.0997,7503
0.775,1066
-0.186,7569
0.0729,2864
-0.274,10626
0.173,2339
0.0375,3956
-0.428,9404
-0.111,7690
0.0147,4618
0.00907,5177
-0.133,6562
-0.00524,5198
-0.183,5815
0.2,1910
0.0627,3341
0.0645,2381
0.252,1276
-0.0876,7905
0.223,2132
-0.0739,7709
0.104,2868
-0.126,9657
0.0116,4857
0.0353,4480
0.114,3181
-0.182,8677
0.0969,2540
-0.00378,5398
0.178,2412
-0.0959,6830
-0.399,9597
-0.337,9806
0.052,3690
0.145,453
-0.0697,7009
-0.0334,5534
-0.279,8858
0.017,4860
0.0985,2880
0.0655,2271
-0.176,9017
0.0017,5046
0.14,1640
0.00613,4901
-0.0669,7336
-0.0814,8836
-0.386,9755
0.0322,4468
-0.182,8870
-0.204,9336
-0.107,7720
0.0714,3318
-0.072,7762
0.139,569
-0.295,10335
0.198,2819
-0.108,9613
-0.0948,7071
-0.241,10438
-0.182,8456
0.743,148
0.295,731
0.166,781
-0.109,7622
0.064,3670
-0.469,10598
0.16,2446
-0.363,7677
0.174,1571
0.386,714
0.221,2297
-0.2,7192
0.187,2137
0.165,1789
0.136,2077
0.184,664
-0.0529,7518
0.0267,4575
0.181,2603
-0.015,5381
-0.0624,7545
-0.231,10217
0.0799,3480
0.0141,4724
0.842,251
-0.0456,6179
0.112,1820
0.0389,4079
0.135,2542
0.472,235
-0.0745,6720
-0.155,9121
-0.00304,5305
0.087,2930
0.0405,4024
0.239,1178
0.395,699
-0.376,10352
-0.181,9961
-0.023,6462
0.311,1219
0.054,4218
-0.21,10588
-0.00609,5466
-0.0474,6451
-0.182,8727
-0.126,8218
-0.086,8761
-0.103,7748
-0.101,8716
-0.00815,5725
-0.0387,7658
-0.0198,6647
-0.092,8895
0.0156,4632
-0.0813,7941
0.289,550
-0.197,8391
-0.174,9747
-0.0458,6264
0.0467,4224
0.539,73
0.0133,4685
-0.098,9323
-0.0163,5504
-0.0702,6786
-0.151,10491
-0.0292,5814
-0.386,9141
-0.175,8643
0.318,341
0.0743,3547
-0.0475,6895
-0.211,5890
0.186,1322
-0.269,9527
0.16,1566
-0.143,9709
-0.349,8535
-0.0291,5849
-0.0191,5604
-0.269,9799
0.268,1008
0.0263,4565
0.173,2207
0.226,950
-0.349,10459
0.0784,2042
-0.142,8469
0.174,2540
0.401,2509
-0.346,8887
-0.0513,6596
0.331,173
-0.104,7863
0.0533,3817
0.106,3649
-0.19,7009
0.224,1565
-0.103,8276
-0.0667,8222
-0.185,8502
-0.116,8476
0.286,1624
-0.0167,5994
-0.0535,8228
-0.0764,7184
-0.279,10510
0.541,30
0.0209,4474
-0.131,9693
0.195,2247
-0.112,6717
0.0278,4652
-0.289,10171
-0.00678,5593
0.0216,4842
0.221,1591
0.248,1463
-0.245,9292
-0.0992,6349
-0.224,7609
0.0925,2085
-0.0346,6869
0.114,2594
0.0985,3957
-0.063,6319
-0.327,9661
0.13,1752
0.0696,3832
-0.11,8315
-0.123,8170
0.0613,3242
-0.19,9906
0.0213,4922
0.236,1177
0.0335,4576
-0.0854,7715
-0.214,7925
-0.286,8845
-0.07,7791
0.0568,2549
-0.0291,5918
0.0304,4664
0.0694,3845
-0.0587,5387
0.0261,4378
0.301,412
-0.13,8322
-0.255,8670
0.00912,5077
-0.112,7303
0.193,13
-0.125,8677
0.0209,4802
0.497,134
0.268,695
-0.0231,6077
0.00995,5314
-0.0962,8135
0.0152,5198
-0.00317,5153
-0.141,6676
0.0882,3650
0.187,960
0.0155,4903
0.15,2599
0.00528,5042
-0.239,8949
-0.3,9339
-0.0353,6196
-0.284,10943
0.187,1885
-0.04,6123
0.0194,4605
-0.0149,5771
0.127,1910
-0.116,7819
0.0321,4644
-0.369,10188
0.1,4693
0.0259,4938
-0.0779,8799
-0.166,9924
0.105,3189
-0.0681,6846
0.0759,4034
-0.153,9539
-0.0395,6499
-0.0102,5805
-0.043,5845
-0.372,10896
0.0802,3766
0.0501,3905
0.414,6
0.0673,3271
0.0626,4495
0.0702,3466
-0.297,10771
-0.279,7601
-0.0473,7027
-0.0472,6769
0.21,865
-0.0165,5683
-0.221,9844
0.0191,4599
-0.0627,6075
0.0994,2955
-0.4,9873
-0.101,8392
-0.264,7661
-0.233,9332
-0.0645,7733
-0.136,7948
0.0863,2810
-0.145,8224
-0.314,8941
0.925,587
0.145,724
-0.147,9707
-0.339,10399
-0.0213,5379
0.578,439
0.041,4248
0.133,1008
-0.0751,8145
0.0973,2860
0.0891,3593
-0.276,8406
0.25,383
0.148,2263
-0.157,8806
0.122,1772
-0.194,8558
-0.0571,6628
0.163,1939
0.132,2054
-0.196,9893
-0.067,5827
-0.0169,5759
0.17,1814
0.101,2755
0.193,1946
-0.331,10533
-0.19,9114
-0.0764,7368
0.18,1761
0.0611,4429
-0.136,9311
-0.219,8571
0.0123,5062
0.101,2141
0.0445,4343
-0.124,8594
-0.0971,9971
-0.0929,9184
-0.118,7415
-0.27,10151
-0.292,9982
-0.144,10198
-0.0466,6575
-0.00698,5474
0.199,3558
-0.00438,5201
-0.243,8152
-0.0523,5849
0.0302,4495
-0.108,8882
-0.344,10439
-0.04,6031
-0.149,9430
0.358,1232
-0.0609,7144
-0.0714,9583
-0.119,6461
0.015,4850
-0.0592,4482
0.0405,4279
-0.207,9543
-0.119,9237
-0.018,5647
-0.162,8134
-0.0357,5737
-0.211,9980
-0.0167,6053
-0.117,9090
0.463,1387
-0.125,7711
-0.108,7631
-0.18,4155
0.107,3703
0.102,2450
0.148,2869
-0.00288,5522
0.0769,3727
0.0248,4855
-0.0608,7394
-0.0353,6845
-0.145,9989
0.0944,2668
0.0373,3940
-0.157,9540
-0.144,9651
0.131,2393
0.0857,3623
-0.0855,6071
-0.446,10363
-0.243,10192
-0.105,8145
0.199,1079
-0.183,8765
-0.134,7879
0.371,23
0.187,2204
-0.0719,7813
0.328,244
-0.21,9470
0.0807,2377
-0.226,8790
-0.228,8498
0.0618,2691
-0.00825,5814
0.0922,3419
0.0496,3982
-0.133,8529
-0.185,8816
-0.0686,8638
0.145,993
-0.114,8504
-0.119,6926
-0.313,8619
0.119,2481
-0.0914,8898
0.155,1041
0.216,2033
0.291,1495
0.0134,5038
0.176,3541
0.00264,4993
0.0282,4165
0.29,2007
0.0325,4380
-0.333,8161
-0.0484,6798
0.0619,3111
-0.0538,7990
-0.188,8376
0.0283,4077
-0.315,8789
0.0309,4836
0.00747,4994
-0.194,10729
-0.331,10734
-0.506,10258
0.0503,3709
-0.295,7311
0.0446,4315
-0.071,7841
-0.375,10636
0.342,1175
-0.138,8645
0.032,4623
0.000242,5388
-0.0197,5836
1.17,539
-0.04,4010
0.127,2090
0.274,1494
-0.0644,6027
-0.453,10094
0.127,2962
-0.013,5567
0.0984,2672
0.0123,4977
0.124,3827
-0.0807,5969
-0.107,6715
-0.0501,7704
-0.0616,7694
0.177,1752
-0.059,7454
-0.185,10102
-0.116,8402
0.0778,2096
-0.135,9599
0.191,2429
-0.17,8658
-0.303,9951
0.148,2256
-0.00101,5491
0.0325,4076
-0.24,9638
0.124,2732
-0.155,8290
0.29,1359
0.133,2557
-0.151,9328
0.617,1399
-0.197,7658
0.0949,2880
-0.0656,6492
0.217,563
-0.061,7570
-0.159,6517
0.187,2433
-0.0327,5622
0.14,537
0.0224,4465
-0.0372,7203
-0.5,7283
-0.524,8227
0.0529,4326
0.119,3749
0.199,1336
-0.175,9946
0.572,2003
-0.331,8221
-0.319,6622
0.0375,4748
-0.15,6162
-0.281,7164
0.00447,5155
0.219,1895
-0.00752,5482
-0.0212,6195
0.0782,4013
-0.845,10980
0.0648,3523
-0.292,7498
-0.155,8258
-0.0876,7225
-0.0698,7552
0.0719,3782
0.324,858
0.132,2849
0.0598,3897
-0.214,10094
-0.122,7797
0.032,4373
0.092,3967
-0.176,10846
-0.107,9891
0.0659,3871
-0.138,8866
-0.193,10396
-0.161,9593
0.526,129
-0.107,8258
0.00604,5261
0.0522,3620
0.0267,5072
0.384,1259
0.119,3763
0.136,2329
-0.3,10090
-0.323,7163
-0.00534,5325
-0.261,10015
0.21,2151
0.0821,1905
0.506,857
0.0201,4454
-0.0606,3625
-0.133,7421
0.0322,3995
0.000567,5410
0.431,390
0.192,1845
-0.0743,6424
0.167,1677
-0.295,10969
-0.156,8591
0.129,2256
-0.132,8184
0.413,214
0.32,987
0.0257,4710
0.115,1065
-0.169,7609
0.398,542
-0.437,10387
0.0447,3992
-0.0478,7145
0.299,847
0.147,2028
0.467,30
-0.254,8966
-0.445,10460
-0.0239,5672
0.233,169
-0.32,10030
0.24,1627
-0.0921,7603
-0.0412,6907
0.227,202
0.115,1989
-0.236,9014
0.203,2189
-0.0134,5695
-0.125,5825
-0.0222,6357
-0.0594,7383
-0.163,7638
0.254,1586
0.291,994
0.0745,3687
-0.105,8540
-0.295,9860
0.269,1435
0.115,2968
0.157,2523
0.131,560
0.0116,5048
-0.106,8580
-0.235,7812
-0.209,10173
-0.25,9892
-0.0424,7589
0.0665,3538
0.22,244
0.0073,4928
-0.397,10461
0.114,2649
0.089,3289
0.469,126
0.0355,3822
-0.157,9853
0.253,495
0.291,1419
-0.226,9053
-0.0764,7714
-0.0259,6118
0.0608,3821
-0.0791,7380
-0.176,8890
-0.072,7211
-0.159,10239
-0.0598,7195
0.317,922
0.0282,4746
0.198,1896
-0.0533,6911
-0.143,8448
-0.126,10201
-0.197,10212
0.406,252
-0.0566,7589
-0.182,10008
-0.0667,7621
-0.236,8941
0.0829,3513
-0.108,9597
0.222,3036
-0.0652,8018
-0.0135,5527
0.0592,3804
0.031,4090
-0.35,9911
0.613,170
0.0168,4729
-0.133,9516
0.285,650
-0.11,8002
-0.0624,6603
-0.23,10235
-0.0952,7988
-0.0168,6095
0.0723,4174
-0.156,9453
-0.263,9756
-0.165,8698
-0.336,10313
-0.0684,8151
-0.178,9737
-0.0224,5683
-0.0127,5704
-0.119,6326
-0.125,8797
0.133,1753
0.172,3045
-0.444,10116
-0.194,7358
0.0643,3311
-0.205,8976
0.0698,3926
0.0576,4405
-0.0833,6524
-0.155,7961
-0.152,9052
0.0801,2829
0.125,2010
-0.0436,6473
-0.0225,5953
-0.154,9469
0.219,885
0.456,120
-0.206,9481
0.079,3360
-0.194,9491
-0.0498,6955
0.302,292
0.347,472
-0.0789,7579
0.0147,4903
0.23,1462
0.302,640
-0.131,10428
-0.0281,7244
-0.0433,6283
-0.116,8434
-0.0991,7620
-0.0746,6386
0.502,19
-0.0509,6322
-0.037,5794
-0.0125,5349
0.473,85
-0.142,7712
-0.0482,6870
-0.137,8511
-0.064,6863
-0.281,8840
-0.114,5047
-0.251,9583
-0.237,9012
0.132,525
0.672,7
0.174,3737
-0.0778,6779
-0.145,9049
-0.186,10991
-0.0293,6945
0.0962,3843
0.111,1834
0.0313,4873
0.126,1779
0.00732,5094
-0.0674,7718
-0.0761,7242
-0.187,8829
-0.00666,5685
-0.00592,5507
0.0593,3439
-0.0391,7203
-0.214,9775
0.24,794
-0.285,9829
-0.0642,7912
0.134,2853
-0.142,9533
-0.0432,6686
-0.309,10746
0.529,1167
-0.215,8958
0.0677,3382
-0.049,6631
-0.0477,6340
-0.0353,6014
0.0905,3836
0.338,474
0.133,1422
0.0941,1874
-0.205,9184
0.188,3042
-0.0331,6227
0.102,3009
0.105,847
0.356,198
-0.0782,8032
0.268,1279
0.258,1059
0.0879,3735
-0.149,9375
0.0868,3270
0.352,406
-0.186,10034
0.0276,4856
-0.377,7611
-0.0582,7290
0.26,106
0.232,1485
-0.181,8833
-0.0762,6445
-0.167,8808
-0.0407,6602
0.0545,2758
-0.136,8085
0.199,1398
0.665,40
0.02,4700
-0.201,9953
0.0746,2974
-0.261,9602
0.0479,3813
0.0993,3481
-0.103,5035
0.0417,4309
-0.208,9631
-0.376,10680
0.228,235
-0.112,8317
-0.133,8331
0.0899,2075
-0.0504,7431
-0.309,10484
0.079,3320
0.0758,3768
0.271,1014
-0.0806,8318
0.12,2279
0.0117,4813
-0.162,9679
-0.16,7430
0.0711,3365
0.0389,4548
-0.17,8706
-0.152,9653
-0.567,10012
-0.427,10875
-0.00179,5807
0.0126,5123
0.202,727
-0.179,9449
-0.252,7512
-0.215,9686
0.123,744
0.03,4422
0.0188,4979
-0.189,10322
0.0361,4084
-0.0833,6147
0.0196,4468
-0.147,8223
0.229,619
0.211,2288
-0.268,8458
-0.0763,6303
0.0884,1966
-0.0473,7161
-0.191,9240
0.248,1377
-0.0109,5259
0.115,1910
0.164,908
-0.0808,7735
-0.00496,5428
0.185,1561
0.435,521
0.36,1587
-0.348,10381
0.265,627
-0.123,6676
-0.141,8909
0.0978,3269
-0.0482,5565
0.196,1563
-0.36,10542
-0.117,6860
0.142,2324
0.376,450
-0.0071,5605
0.0596,3631
0.226,1247
0.338,180
-0.000929,5246
-0.0378,6040
-0.159,7490
-0.0524,6666
-0.0855,8348
0.0112,5116
-0.186,7493
0.141,2933
0.00139,5253
-0.0948,8546
-0.187,10469
0.146,1750
0.127,2905
-0.034,6644
0.0452,4239
0.0985,3576
-0.134,9653
-0.308,10154
0.25,1325
-0.222,10124
-0.341,10219
-0.0384,7332
0.0579,2531
-0.188,9448
-0.0495,6757
0.381,2612
0.0633,4307
-0.143,7760
0.108,2154
-0.196,10199
-0.0131,5321
-0.294,9974
-0.0242,5674
0.244,342
-0.0735,8979
0.106,3456
-0.169,9940
-0.0175,5605
-0.184,9661
-0.0705,6852
-0.242,10467
-0.596,7956
-0.199,9218
-0.292,9928
-0.156,7642
-0.162,9369
0.102,1644
-0.0222,5505
0.833,153
-0.279,9829
0.457,2267
-0.00548,5787
0.052,3764
0.0596,4281
-0.037,6621
-0.0249,5339
0.0106,5037
-0.119,9225
-0.017,5840
-0.103,7664
0.0377,4668
-0.116,6832
0.167,2895
0.249,592
-0.0597,6870
-0.0298,3778
-0.0175,6004
-0.0747,7803
0.0509,4353
-0.0208,6325
0.00688,5190
-0.11,7269
0.075,3646
0.487,1049
-0.231,10749
0.0794,3476
-0.211,9514
0.106,3676
-0.127,8339
-0.192,9993
0.0222,4815
-0.108,8908
0.0409,4052
0.901,641
0.0753,3081
-0.122,9334
0.0442,4481
-0.307,11004
0.0697,1903
0.276,3201
-0.302,6224
-0.066,7120
0.367,729
0.107,2842
0.153,1366
0.213,1481
-0.134,8131
-0.215,9217
-0.151,10647
0.136,396
-0.186,9546
-0.189,8775
0.589,993
-0.0809,6623
-0.431,10183
0.293,1227
0.0746,3753
-0.0689,7890
-0.0936,8284
-0.0421,6364
-0.117,8347
-0.0521,9093
-0.025,5933
-0.297,9666
0.0116,5138
0.133,3944
0.0333,4398
-0.253,10764
-0.0805,5825
-0.216,9880
0.117,3365
-0.0916,6457
-0.305,9242
0.425,145
-0.522,9346
-0.132,8859
0.107,3420
0.278,801
-0.123,6172
-0.122,8284
0.0808,2579
0.152,1858
-0.101,7286
0.134,1657
0.379,613
-0.122,8390
0.0866,3060
0.034,4570
-0.226,9613
0.168,1773
0.817,58
-0.616,9566
0.159,3126
0.102,2924
-0.286,10366
-0.127,8576
0.0548,4369
0.163,1058
-0.0874,8606
0.0166,2933
-0.194,8568
-0.183,8215
-0.27,9057
0.23,1237
0.232,887
-0.0501,7498
-0.217,10695
-0.0676,7276
-0.102,7049
0.176,2825
0.0104,4811
-0.0675,7314
-0.215,10194
-0.134,8939
-0.0534,6448
-0.163,7983
0.0948,567
-0.0384,7148
-0.199,9691
-0.0503,7493
-0.226,10527
0.138,3541
-0.0211,5706
0.0014,5117
-0.356,10205
-0.0353,5988
-0.122,8906
0.0955,3065
-0.196,9722
-0.268,10494
-0.165,8568
0.227,1473
-0.146,9457
0.2,1003
-0.0644,6448
-0.0724,5461
-0.185,7089
0.0936,3101
-0.167,9677
0.054,2915
-0.555,9892
-0.186,9199
0.768,108
-0.358,10806
0.0228,4413
0.126,2364
0.094,2051
-0.0235,6078
0.0598,3931
0.177,2545
0.134,1610
0.182,59
0.0284,4721
-0.196,9050
0.162,2684
0.222,2768
0.388,84
0.00222,5396
0.242,1333
-0.162,9535
0.364,2068
0.0873,2850
-0.0388,6465
0.0241,4675
-0.47,7327
-0.24,10592
-0.204,7649
-0.0113,5338
-0.259,10947
0.0116,5052
-0.0527,6975
-0.344,10230
0.108,3475
-0.305,10883
-0.0343,6487
-0.159,9857
0.0508,4217
0.321,903
0.0585,4752
-0.0947,8153
0.159,2730
0.274,604
0.0782,2495
0.0448,3305
0.142,2265
-0.13,8119
-0.128,9599
-0.0397,5836
0.122,1926
0.0805,3513
-0.126,8284
-0.227,9884
-0.25,10294
0.119,3528
0.002,5290
0.412,1056
-0.0428,6159
0.308,636
0.121,1708
-0.0181,6206
-0.0758,7336
0.108,3054
-0.173,9003
0.0327,3525
-0.192,9746
-0.0788,9145
-0.0977,6817
-0.144,9330
0.0446,4270
0.301,1522
-0.107,7685
-0.0569,6860
-0.251,10177
-0.304,10457
-0.00451,5217
-0.03,6156
-0.0673,8291
0.247,1640
-0.376,10571
-0.12,9183
-0.212,9333
-0.0211,5994
-0.212,8939
-0.0261,5901
0.0243,4810
-0.177,7042
-0.422,8900
0.0845,3010
0.365,16
-0.112,8074
0.228,1396
0.14,1782
0.222,2393
-0.238,8094
-0.142,9564
0.153,856
-0.0696,6339
0.682,80
-0.0334,6123
0.114,2697
0.304,352
-0.0891,7410
-0.193,10014
0.302,999
-0.153,8684
-0.058,6592
-0.0175,6166
0.0561,3949
-0.0956,7415
-0.176,10021
-0.129,7186
0.11,3570
-0.0825,7245
-0.175,10016
0.224,1284
0.0625,4269
0.495,247
0.297,359
-0.206,8050
-0.235,10443
0.00614,4954
-0.0345,6156
-0.217,9997
-0.215,9374
0.132,865
0.0781,2797
0.572,89
-0.361,9868
0.21,2859
-0.195,9756
0.0113,5019
0.0326,4335
0.164,1497
-0.166,8081
-0.00842,5783
-0.12,7849
-0.0912,7150
0.209,311
0.461,925
-0.108,7155
-0.00721,5616
0.506,634
-0.038,6892
0.0246,4529
-0.0674,7143
0.0636,3806
0.0027,5396
-0.31,10897
0.285,545
-0.194,9119
-0.0319,6581
0.879,5
0.74,565
0.239,214
-0.0585,6719
0.0414,4250
-0.0794,7563
-0.0794,6644
-0.118,6853
0.0732,4240
-0.149,9125
-0.0116,5965
-0.0433,5855
0.422,416
-0.0639,7800
0.262,533
-0.0391,7615
-0.0377,7211
0.0269,4816
0.0838,4309
-0.029,5784
-0.0852,7220
0.2,664
-0.183,10482
-0.27,10476
0.131,1933
-0.166,7274
0.0456,4305
0.271,868
0.0952,1743
-0.132,8100
-0.0625,7215
-0.224,6548
0.396,576
-0.0371,7144
-0.08,7580
0.242,321
0.325,898
0.111,1554
0.0182,4746
0.0781,3373
-0.0535,6563
0.168,1254
-0.117,7464
0.00018,5383
-0.0219,5988
-0.0569,7618
0.155,1282
-0.122,9013
0.158,3496
0.139,3585
0.283,804
0.026,4720
-0.188,9846
0.327,1200
-0.157,7785
-0.105,7061
-0.228,8901
0.074,3309
-0.14,8070
-0.235,9294
0.0796,3014
-0.0296,5973
0.351,1564
0.127,785
0.0939,1305
-0.13,7967
-0.235,9263
0.266,577
-0.204,10405
-0.135,9245
-0.000872,5481
0.249,582
-0.319,10455
-0.0264,4942
-0.243,7880
0.107,2764
-0.0599,6967
0.0546,3706
-0.387,10966
0.0863,3279
-0.063,7025
-0.0479,7367
0.13,827
-0.187,8257
0.263,508
0.241,2055
0.457,192
-0.184,10367
0.283,562
-0.276,10328
-0.229,9619
0.0103,4805
-0.371,9159
0.00265,5183
-0.0346,7973
0.11,2576
0.102,2510
0.416,176
-0.316,8688
-0.245,9523
0.0188,4775
0.637,524
0.128,3255
0.0828,3927
-0.138,8788
-0.21,10019
0.253,209
0.123,1987
0.107,3662
0.341,627
0.089,3591
-0.112,8955
0.124,1528
0.0709,4224
0.0908,3286
-0.22,8174
0.146,1898
0.02,4596
0.0538,3745
-0.162,8693
0.19,1626
0.0273,4595
-0.654,10660
0.117,3210
0.337,56
0.12,2341
0.155,2826
0.194,938
-0.00972,6338
0.202,359
0.198,473
-0.154,9869
-0.171,7503
0.0445,4338
0.113,1809
-0.0719,6237
0.391,201
0.0133,5145
0.0189,4613
-0.0617,6038
0.546,602
0.0227,4670
-0.146,10713
0.196,1451
-0.0234,6231
0.513,920
0.0702,3604
-0.292,10345
-0.0712,8104
-0.0337,5730
0.16,2313
-0.14,6373
-0.0925,6705
-0.175,10076
-0.0725,8030
0.0663,4143
-0.154,7594
-0.209,10030
-0.0207,6090
0.217,1836
0.43,12
-0.133,8299
-0.0549,7499
0.0179,4580
-0.216,8581
-0.146,8222
-0.234,10226
0.0591,3945
0.273,1430
0.31,881
-0.224,9910
-0.0339,6313
-0.0264,5710
-0.28,9276
-0.0738,6387
-0.11,8409
-0.179,10141
0.053,3145
-0.118,9573
-0.262,10028
0.243,2140
-0.176,9031
-0.255,10092
-0.0267,7101
-0.0841,8252
0.475,920
-0.241,10125
0.0337,4345
0.303,852
0.0801,3655
0.0224,4597
0.25,799
-0.322,9408
-0.19,8535
-0.126,8214
0.0875,3672
-0.0662,7560
0.239,746
-0.651,10935
0.107,3528
0.147,2124
0.0628,3704
-0.00565,5346
0.227,1457
0.12,2587
0.374,592
0.0773,3327
-0.125,8692
0.0922,2500
0.0661,4068
-0.0716,6321
0.505,216
-0.167,7009
0.0087,5080
0.134,1264
-0.176,10751
-0.216,8375
0.00898,4967
0.328,741
0.0681,3340
0.346,425
-0.276,10086
-0.119,8965
-0.0591,7790
0.125,1360
-0.19,10164
-0.239,9843
-0.158,9973
0.0422,4608
-0.14,7335
-0.186,10177
0.0393,3256
-0.0436,6234
-0.0487,6427
0.19,1038
0.819,308
0.0138,5064
-0.123,9216
-0.023,6050
-0.176,8930
-0.228,7613
-0.465,9800
0.215,2088
0.00638,5369
0.599,313
-0.278,10625
0.385,946
-0.194,6784
-0.0355,7393
-0.016,5737
-0.111,6598
0.217,1385
-0.379,10850
-0.0802,7690
0.00267,5251
0.116,1704
0.161,1975
0.338,1688
0.883,895
-0.269,10205
0.0202,3868
-0.166,10510
0.0953,3343
0.198,526
-0.624,9371
-0.262,8512
0.232,1258
-0.155,9371
-0.232,10389
-0.14,8512
0.0963,2500
0.944,249
0.0807,3072
-0.129,9975
-0.123,7819
0.656,236
-0.217,7384
0.163,2429
-0.0662,7039
-0.246,7518
0.0504,4268
-0.241,10261
-0.253,10061
-0.139,8580
-0.0653,8107
-0.0267,5919
0.0816,3319
0.21,1614
-0.29,9991
0.0387,4205
0.0668,3857
-0.22,10790
0.153,1080
0.223,2671
-0.175,6128
0.636,380
-0.0126,5922
-0.0428,7928
-0.127,8221
-0.0951,6582
-0.275,9098
0.043,3819
0.323,1321
-0.00264,5497
-0.204,10025
-0.0899,7893
-0.0469,7714
0.158,1237
0.14,901
0.0673,2811
0.0344,4361
0.0262,2937
-0.0402,6325
0.111,2680
0.297,235
0.219,615
-0.07,5668
0.47,1065
-0.0875,6429
-0.14,6937
0.0469,3627
-0.0448,6464
-0.0389,5827
0.514,364
-0.0418,5543
-0.186,8953
0.256,874
0.314,1039
0.0727,2475
0.199,851
-0.0316,6335
-0.0696,7334
-0.0991,8522
0.171,802
-0.242,9108
0.000659,4892
-0.374,10082
-0.0366,5815
-0.0444,6801
-0.0577,6836
-0.161,8552
-0.222,8611
0.0394,4334
-0.142,8156
0.122,573
0.0222,4601
0.23,1779
-0.0104,5529
-0.697,9920
0.0701,3631
-0.036,6266
-0.132,8060
-0.163,8719
-0.0353,6814
0.213,2344
-0.0555,5817
-0.0668,8347
0.229,461
0.0209,4758
0.174,2818
0.353,102
0.042,4530
-0.197,10783
-0.121,8918
0.142,2772
-0.215,9727
0.0234,4756
-0.436,8168
0.0358,4233
0.459,66
0.179,3017
-0.106,8266
-0.208,9453
0.157,2736
-0.0829,8683
0.121,2240
0.296,334
-0.177,8858
-0.177,8910
-0.341,9268
0.0287,4802
-0.159,8538
-0.288,9735
0.925,1080
-0.173,8234
0.0837,3366
0.165,2033
0.185,188
-0.509,6838
0.0368,4634
-0.0468,7987
0.0104,4859
0.0782,3180
-0.22,10888
0.169,1813
0.143,2969
0.265,1193
0.141,3098
-0.0267,6493
-0.0304,6338
0.149,1131
-0.156,7619
0.884,0
-0.102,6935
0.0521,3966
0.0521,3591
0.125,3083
-0.125,7120
-0.123,7476
0.303,1111
-0.133,8212
0.322,14
0.0915,3863
-0.00184,5270
0.325,2002
-0.333,7419
-0.107,8116
-0.0167,6218
0.083,2914
-0.248,9638
0.00156,5037
0.0157,5134
-0.0318,6336
-0.078,6835
-0.0515,6387
-0.29,9487
-0.372,10349
0.114,2143
-0.035,6392
-0.138,8949
-0.199,10287
-0.00421,5576
-0.114,8083
0.0138,4688
-0.162,9313
0.135,1743
0.0385,4416
-0.155,8868
-0.0584,6324
-0.334,10223
0.233,433
-0.0218,5703
0.268,595
-0.134,8524
-0.19,7939
0.474,69
-0.0227,6201
0.135,2097
-0.0999,8255
0.139,1850
-0.138,9148
0.042,4451
0.0473,3555
-0.0992,7454
0.269,756
-0.0301,6291
-0.368,9738
-0.357,9707
0.166,662
0.151,1558
-0.0433,7060
0.0467,4432
0.382,1328
-0.0201,5881
-0.0502,6577
-0.00878,5720
-0.0258,6321
0.128,2150
0.241,2715
0.0702,3104
0.0147,4487
-0.113,9192
0.175,1714
0.444,888
-0.0914,7024
-0.277,7648
-0.178,10739
-0.0963,7712
0.123,3028
-0.307,10293
0.0656,3047
0.167,905
0.309,479
-0.0454,7041
0.0923,2498
0.0715,3072
-0.0915,6898
0.0319,4556
0.0421,4760
-0.249,9224
-0.0492,5604
0.109,3461
-0.216,10395
0.396,91
-0.0143,5489
0.75,362
-0.0475,8309
0.095,3427
-0.069,7529
0.0465,2634
-0.0834,7126
-0.168,9455
-0.084,6915
-0.105,8318
0.0165,4617
-0.232,9923
0.222,1256
0.0532,4675
-0.121,6573
0.0136,5104
0.151,2273
0.0685,2946
0.199,3020
0.0513,3970
-0.0606,6377
-0.47,10995
0.0115,4993
0.292,102
0.0799,3747
-0.0767,7574
-0.285,9920
0.0294,4114
-0.074,8127
-0.205,9965
-0.0221,6093
0.168,2299
-0.0332,6968
0.0745,3037
-0.0543,7045
0.06,4010
-0.0217,5972
0.02,4777
-0.111,6038
-0.128,8373
-0.0439,7716
-0.0529,6867
-0.0183,6579
0.359,1053
-0.00952,5419
0.103,1600
-0.0569,7679
0.27,723
-0.0506,5727
-0.0834,6461
-0.0223,5642
0.0622,3755
-0.0432,7281
0.0274,4502
-0.145,8535
0.162,2437
0.062,3769
-0.151,9941
0.0127,4848
-0.142,8361
-0.156,8637
0.0477,3890
0.0223,4654
0.122,605
0.0509,3815
-0.0321,6482
0.0147,5027
-0.103,7793
0.0981,3732
-0.0932,8783
-0.142,9042
-0.253,10184
0.147,2111
-0.0997,7840
0.0272,4574
-0.0374,6442
0.188,960
0.697,676
0.0512,4040
0.182,2319
0.64,286
0.0136,4890
-0.0421,6755
-0.127,8308
-0.0147,5733
-0.235,7399
-0.017,6060
-0.0372,6113
0.276,714
-0.186,9688
-0.338,10152
-0.365,10623
-0.1,7754
-0.024,5987
0.145,2323
-0.116,8299
-0.203,8707
0.103,2845
0.158,1345
-0.109,8430
0.525,628
0.282,850
-0.245,8687
0.152,2659
-0.156,8662
0.194,1891
0.231,1987
-0.000352,5470
-0.0915,7037
-0.27,8505
-0.0283,7141
-0.168,8398
-0.0764,6670
-0.512,10772
0.383,784
0.19,1752
0.0768,2775
-0.223,10668
0.00475,5104
0.0803,3834
-0.0586,6412
-0.0311,6454
0.247,1696
0.376,271
-0.182,8282
0.117,3217
-0.151,9188
-0.0965,7385
-0.0298,6127
-0.0159,5469
0.0326,4272
-0.0475,5776
0.0875,3553
0.24,1642
0.0222,4338
-0.112,8129
-0.00076,5493
-0.209,9949
-0.13,9822
-0.0129,5785
-0.0705,8231
-0.0584,7472
0.0176,4802
-0.0313,6123
-0.0206,6789
0.251,1474
0.0438,3536
0.0476,3171
0.289,579
-0.37,10519
-0.21,7335
-0.173,8702
0.211,1073
0.00881,4797
0.199,1355
-0.416,10957
0.0259,4765
-0.111,7111
-0.208,9452
-0.123,9340
0.0582,3812
0.00905,5394
0.0254,4693
-0.125,8562
-0.108,9465
0.149,2351
0.00347,5254
-0.363,10089
0.0243,4376
-0.184,7604
0.0508,2959
-0.00227,5557
0.347,1309
-0.256,8363
-0.168,8164
0.381,2164
0.0301,4270
-0.0249,5838
0.376,1064
-0.0831,7117
-0.257,9582
-0.045,5853
0.0764,2571
0.244,545
-0.0477,6592
0.0162,4864
-0.115,6964
-0.169,6933
-0.0804,6675
0.0533,3545
0.128,2401
0.00561,5116
-0.135,8712
0.164,1067
-0.145,9173
0.0225,4658
0.438,437
0.145,1825
0.0365,4499
-0.185,6188
0.103,2473
-0.171,10007
-0.376,9374
-0.148,7527
-0.169,8710
-0.175,8352
0.188,902
0.147,2232
-0.225,9828
-0.0637,6225
-0.138,9149
-0.055,6705
0.00127,5228
-0.119,10526
-0.238,10061
-0.185,8393
-0.225,9668
-0.0833,7107
0.0971,1729
-0.00452,5575
-0.191,7054
-0.123,7267
-0.0629,6473
-0.145,9421
0.134,1482
0.411,462
0.033,4472
-0.0506,6641
0.65,1252
0.0699,3384
0.939,272
-0.0801,8429
-0.118,8715
-0.337,10642
0.155,2045
-0.171,9220
0.398,23
-0.226,8635
0.502,137
0.108,2993
0.00143,5006
0.103,3501
0.288,473
0.00441,5295
0.0459,4319
0.239,1193
-0.0807,8295
0.00885,5122
-0.124,8708
0.139,2324
-0.0919,8764
-0.215,10309
0.0544,3162
0.00605,4865
0.1,2346
-0.0461,7146
-0.0717,8387
0.145,2904
-0.0998,9732
-0.135,7719
-0.0904,7796
0.159,2506
-0.0871,7935
-0.0856,7427
-0.0479,6983
0.516,10
0.104,1972
-0.0374,7210
0.164,1670
0.206,1247
0.13,3496
0.108,4052
0.0191,4345
0.0616,2081
0.384,137
-0.0251,5720
0.0659,3636
0.212,2571
-0.0118,5583
0.33,334
-0.21,8584
-0.15,8113
-0.144,8225
-0.214,8937
-0.107,7563
-0.256,10691
-0.136,5846
-0.303,7911
0.683,5
0.408,2378
0.283,1212
-0.198,8241
0.242,1566
-0.233,7883
-0.163,10056
-0.0735,6636
-0.221,9700
0.24,1012
-0.0232,5418
-0.0657,6501
0.0586,3312
-0.104,7973
-0.08,7972
0.209,876
0.0259,4572
0.523,77
0.00823,4823
0.133,1769
-0.113,7829
-0.141,6653
0.0482,3600
0.014,4547
0.0182,4881
0.11,3571
0.0575,3858
0.0615,4202
-0.363,9047
0.055,1505
-0.0547,8762
0.182,2125
0.704,90
-0.211,10124
-0.0883,7132
0.0746,3702
-0.0835,7871
-0.268,10813
-0.28,9865
0.128,1861
-0.0128,5398
-0.0976,8564
-0.151,10203
-0.012,5897
-0.257,10361
-0.0831,7150
-0.147,8123
-0.48,10380
-0.0832,6737
-0.0168,6066
-0.098,7839
0.162,3365
-0.0541,6707
-0.146,8767
0.0258,4655
-0.109,9176
-0.0313,6770
-0.00816,5208
0.171,1045
-0.00886,5302
0.0418,4045
0.0977,1477
-0.234,10639
0.058,3373
-0.18,7829
-0.0474,5985
-0.272,10951
0.637,23
0.103,3176
-0.0352,6153
-0.0347,6159
-0.112,9410
-0.195,7242
-0.163,9135
-0.116,7824
-0.00604,5653
-0.0219,5449
0.178,1830
0.194,469
0.00343,5280
0.0337,4702
-0.106,8063
-0.0548,6833
0.0772,2564
0.00866,5015
-0.0384,6989
0.0656,3416
0.0079,5026
0.131,2199
-0.0974,6226
-0.00234,5477
0.0579,3566
0.156,2714
0.224,873
-0.315,8224
-0.437,9762
-0.133,9031
-0.198,10609
0.0603,3669
-0.156,9857
-0.159,8930
-0.248,10434
-0.354,10125
-0.147,9936
-0.211,10686
-0.272,10004
0.0958,2949
-0.139,7714
0.0631,4019
-0.0695,6790
-0.0141,5578
0.686,8
-0.0312,6144
0.4,534
-0.0606,9104
-0.162,7330
-0.0831,7475
0.359,100
0.0481,3959
-0.755,10142
-0.0885,9086
-0.0352,7261
0.0352,4613
-0.357,10088
-0.307,9255
-0.437,8236
0.0165,4968
-0.0949,8592
0.185,1583
-0.157,10086
0.0218,4774
-0.187,9656
0.165,2404
-0.098,7401
-0.264,10299
1.04,53
-0.215,9215
0.158,1210
0.347,542
-0.0807,6604
-0.0472,6636
0.175,2564
0.244,1494
-0.115,8388
-0.211,8694
-0.119,10202
-0.0518,7146
0.00618,5136
0.0986,3796
0.00139,4961
0.182,952
0.00795,4911
0.107,2885
0.15,1075
0.0784,3531
0.223,1750
0.164,1886
-0.0164,6862
-0.0788,7771
-0.133,7940
0.0736,4234
-0.195,8709
-0.171,10025
0.0549,1706
0.0128,4845
0.325,308
0.0108,4896
-0.0762,7315
0.167,1870
0.0724,3459
0.964,298
0.269,1005
-0.0615,6417
-0.352,10920
0.124,3361
0.0346,3860
-0.0179,5844
-0.234,9219
-0.0955,8495
0.0657,4023
0.00914,5068
-0.0333,6608
0.233,1109
0.0447,4104
0.638,792
0.107,3334
0.202,147
-0.0493,8091
-0.0342,6002
-0.0129,5499
-0.0723,7665
0.0361,4207
-0.0419,7314
0.0413,3749
-0.332,10507
0.163,1631
-0.00964,5367
-0.178,8168
-0.39,10365
0.0537,3397
0.0798,3414
-0.112,7255
0.0744,4199
0.308,1115
0.0259,4863
0.0309,4149
-0.0724,7310
-0.00241,5379
-0.109,7336
0.194,1356
0.189,723
-0.383,11020
-0.416,9957
0.0317,4644
0.0422,4518
0.0422,4361
0.031,4265
-0.153,10059
0.15,2445
0.128,3251
-0.0233,5576
0.613,9
-0.0736,7999
-0.0928,8708
0.709,620
0.00187,5401
0.526,168
-0.0712,4443
0.236,38
-0.223,10503
-0.53,8727
-0.225,9961
-0.283,9746
0.84,68
0.315,704
0.0159,4800
0.0474,3837
0.0461,4028
-0.0293,6005
0.0154,4734
-0.18,9848
0.0404,4699
-0.105,7279
-0.0498,6889
-0.14,6702
0.25,1447
-0.229,10826
0.00917,4994
0.27,944
-0.0185,5760
-0.13,6821
-0.477,9813
-0.0935,7991
0.0151,5014
-0.188,9018
0.185,2904
-0.178,8938
0.0884,1651
-0.0133,6149
0.0844,2384
0.0525,4003
-0.0417,5668
-0.0213,6013
0.536,644
0.423,61
-0.0415,6535
0.185,766
-0.119,6589
0.0541,3887
-0.261,10170
0.0799,4063
0.271,1023
-0.193,9325
-0.313,6727
0.0848,3578
-0.117,5840
-0.134,9211
0.132,781
0.102,3438
0.0918,3347
0.51,145
0.0906,2355
-0.00624,5582
-0.423,8991
-0.138,8999
0.0196,4871
-1.77,10990
-0.324,9024
-0.0518,7091
0.0186,4742
-0.194,8813
-0.00262,5324
-0.0308,6315
-0.0128,5478
0.0462,4224
0.0786,2257
-0.129,7943
0.488,1024
1.04,854
-0.177,7777
-0.154,10337
0.0351,3968
0.758,497
0.177,3045
-0.119,7995
-0.117,7961
-0.185,10139
0.0394,3990
0.0643,3191
0.0158,4795
-0.399,8709
0.241,1834
0.105,1821
-0.00296,5584
-0.151,8470
-0.0644,6354
-0.0235,5931
0.14,2464
0.169,950
-0.0971,7928
-0.163,8670
-0.0603,7673
0.038,3914
0.361,168
-0.0121,5754
0.12,2459
0.0465,4238
0.0653,3061
0.0143,5272
-0.062,6926
0.154,2046
0.0442,4507
-0.0838,7395
-0.0491,7093
-0.034,6525
-0.0882,6709
-0.0175,5473
-0.0668,6775
0.00523,5223
0.315,357
-0.0398,6620
-0.359,10580
-0.039,6362
0.185,2427
-0.092,7093
-0.0483,6905
-0.0674,7311
0.27,1934
-0.0499,6793
-0.064,7110
-0.0708,7005
-0.0699,8170
0.185,1131
-0.13,5695
-0.151,9047
-0.189,8734
-0.0229,5967
-0.0939,9598
-0.0155,5999
-0.0276,5354
0.0252,4710
-0.0698,7726
-0.176,8356
-0.189,9324
-0.205,9475
0.494,485
-0.0679,6601
0.166,1179
-0.0219,5968
-0.181,8842
0.139,627
0.11,2781
-0.00333,5174
0.267,934
0.0899,2209
-0.0588,6444
0.013,4817
-0.2,7409
-0.211,6892
-0.342,9513
0.241,1660
-0.00765,5722
-0.143,10392
0.143,1872
-0.121,9823
0.00287,5418
-0.0687,6664
0.41,19
-0.0666,8916
0.105,2940
-0.153,8427
-0.0941,6136
0.0443,4656
-0.0247,5852
0.324,2529
0.0592,3858
-0.213,9756
0.0317,4479
0.222,839
-0.155,9838
0.0581,3530
0.114,2362
-0.363,10864
0.349,772
-0.943,10982
0.145,2046
0.269,412
-0.0481,6859
0.245,1125
0.04,4459
-0.0417,6040
-0.125,8026
0.314,87
0.218,2260
-0.138,8694
-0.0328,5623
-0.189,10188
0.0457,2714
-0.189,8031
0.379,84
0.12,2084
0.424,102
0.128,2598
0.0582,2886
-0.0606,7378
0.341,1448
-0.495,10755
0.124,3201
-0.256,7710
0.152,1001
0.056,4255
-0.0442,6514
0.055,3303
0.16,2096
0.189,2282
-0.104,9420
-0.411,10907
-0.0378,5925
-0.128,7380
0.581,879
-0.0491,6145
-0.122,8410
0.181,2294
0.508,493
-0.163,8857
0.192,2244
0.316,847
-0.0617,6651
0.065,2499
0.12,1748
0.0183,4814
-0.205,9664
0.0858,4068
0.101,2099
-0.0581,7258
-0.0731,6656
0.00476,5170
0.904,921
-0.288,8085
-0.181,10516
-0.035,6350
0.026,4665
-0.246,10174
0.149,2429
0.115,860
-0.0861,8439
0.133,2443
0.122,3107
0.0804,3021
0.111,2585
-0.0382,6695
-0.0907,7318
-0.272,10648
-0.00585,5648
0.314,480
0.0675,3941
-0.128,6737
0.151,1124
-0.138,9002
-0.0752,7586
-0.121,7092
-0.148,8010
-0.153,6389
-0.0805,7981
0.108,999
0.216,1919
-0.153,7714
0.0205,4583
-0.043,6405
0.0305,4273
-0.125,9108
0.289,730
0.0418,4269
-0.0703,7306
0.369,452
-0.145,7533
0.108,2924
-0.115,9107
0.0809,2434
-0.0632,6817
0.398,1306
-0.159,10202
-0.0664,7530
0.107,2962
0.0408,4254
-0.114,9014
-0.241,6218
-0.107,8468
0.0875,2861
-0.138,8756
-0.1,8184
-0.073,6661
-0.15,9368
0.0426,3884
-0.124,9125
0.186,3498
0.0275,4821
-0.193,9330
-0.458,10633
-4.25e-05,5242
-0.0296,6257
0.184,2258
-1.1,10766
-0.122,8821
-0.00201,5461
0.115,1019
0.0627,3848
-0.0136,5974
-0.123,8078
-0.299,10182
-0.0995,7412
-0.239,10663
0.474,475
-0.69,9177
0.0453,4248
-0.0891,6230
-0.0385,6796
-0.0828,9254
0.035,4425
0.0977,3288
-0.171,7470
-0.0374,5924
-0.174,9772
-0.0239,6577
0.256,2168
-0.0934,7359
0.164,1433
-0.0758,6403
-0.00476,5414
-0.1,9388
0.267,1072
0.142,2973
-0.0569,6354
-0.117,4703
-0.0911,7977
0.0278,4263
0.141,2030
0.201,1779
0.205,1632
0.0137,4814
0.0633,3493
-0.0782,8498
0.0533,4168
-0.124,7690
0.464,307
0.0419,4318
-0.25,10147
-0.0241,6750
0.0451,4084
0.109,3417
-0.199,9445
-0.15,7748
-0.0723,8264
0.119,2627
-0.105,8741
0.0732,3539
-0.47,10862
0.152,947
0.0739,2830
-0.166,10047
-0.145,9317
0.0246,4689
-0.131,9015
-0.31,8723
-0.0738,7145
-0.017,6262
-0.00467,5351
-0.0254,5853
0.377,919
-0.102,7172
-0.261,10235
-0.125,9130
-0.164,8903
0.0196,4690
-0.0248,6089
-0.17,8210
0.00815,4975
0.157,866
-0.0328,5882
-0.0778,5881
0.047,3396
-0.124,7311
-0.131,8327
-0.258,8329
-0.252,9946
-0.274,10545
-0.139,9979
-0.118,8046
-0.205,9242
0.181,1684
-0.457,10522
-0.831,10473
-0.126,7472
-0.0447,7384
0.121,1703
-0.3,10886
0.14,3678
-0.353,8875
0.0623,3436
-0.0403,6922
-0.349,10555
-0.0174,5664
0.607,1124
0.257,2021
-0.289,9475
0.0998,2629
-0.201,9716
0.161,1928
-0.148,9278
-0.245,9327
-0.237,9791
-0.348,10012
-0.103,9203
0.00292,5325
0.204,2256
-0.139,7689
-0.0393,6486
-0.243,9833
0.178,2281
-0.116,8842
-0.0421,7418
0.606,25
-0.118,9859
0.299,446
0.0872,3302
0.502,235
-0.155,6098
0.114,2769
-0.0486,6188
0.0931,2903
-0.28,10350
-0.14,8296
-0.342,10553
-0.0445,5618
-0.243,10690
-0.16,9085
0.519,480
0.0182,4641
-0.167,9512
0.179,2300
-0.138,10815
-0.00797,5695
0.0335,4569
0.154,3104
0.0214,4450
0.0148,4838
0.0359,4473
0.0834,2140
0.187,791
-0.047,6886
-0.0273,5816
0.246,2016
-0.0713,7245
0.115,898
-0.177,7973
-0.049,6127
-0.0115,5339
0.107,3247
0.0656,3582
0.354,258
-0.163,8250
0.311,424
0.131,3185
-0.188,7957
-0.0141,5476
-0.0828,7617
0.128,2532
-0.485,10403
0.0939,4147
-0.657,10162
0.165,1169
0.404,555
-0.149,4376
-0.45,9668
0.131,3384
-0.248,9536
0.239,1209
-0.0488,7815
0.0274,4473
-0.334,9293
-0.139,8953
0.113,2503
-0.126,9774
0.284,375
-0.127,9469
-0.085,7944
-0.259,10583
0.565,159
0.0478,2890
0.0162,4504
0.192,967
0.304,2305
0.295,515
-0.025,5761
-0.000746,5314
-0.0145,6021
0.232,1087
-0.0174,5972
-0.0198,6317
0.00883,5149
0.0147,4750
0.0148,4614
0.185,1148
-0.0686,6963
0.177,2689
-0.106,7972
-0.0507,6798
0.242,253
0.00478,5363
-0.0955,8056
-0.323,9512
0.348,967
-0.0152,5898
0.359,876
-0.03,6677
-0.218,8399
-0.15,8033
-0.0241,6431
0.103,3343
-0.0588,6540
-0.156,7957
0.0663,3258
0.0903,3567
0.267,1620
0.116,1796
-0.147,9760
0.132,2200
0.232,2011
-0.042,6075
0.149,3125
0.0784,2816
-0.116,10201
-0.0913,6621
-0.0906,6314
-0.362,10466
-0.427,10555
-0.0434,6341
-0.241,10118
0.0564,3673
-0.289,10051
0.128,2166
-0.178,8452
-0.358,10202
-0.0073,5203
0.0882,3491
-0.348,10839
-0.0195,5394
-0.316,8112
0.353,168
-0.33,10305
-0.084,8648
0.167,2770
-0.462,10102
0.0523,3757
-0.135,7682
0.0567,3145
0.207,2899
0.177,2475
-0.0311,6291
-0.195,9691
-0.0969,9539
0.151,1375
-0.0522,6940
-0.0537,7398
-0.0648,5992
-0.0366,5901
0.085,3261
0.306,216
0.034,4565
-0.268,9891
0.164,2634
-0.28,9981
-0.256,10617
-0.503,10821
-0.274,10765
0.0109,5019
-0.172,10028
